timestamp,exg1,exg2,srate
0,6199.943,-7246.649,512
0.001953125,6201.183,-7241.153,512
0.00390625,6178.178,-7262.483,512
0.005859375,6185.298,-7255.783,512
0.0078125,6187.204,-7246.823,512
0.009765625,6190.688,-7250.373,512
0.01171875,6199.358,-7241.337,512
0.01367188,6193.888,-7241.832,512
0.015625,6180.039,-7245.257,512
0.01757812,6164.88,-7255.225,512
0.01953125,6162.3,-7250.576,512
0.02148438,6154.711,-7252.599,512
0.0234375,6156.666,-7247.659,512
0.02539062,6150.117,-7253.597,512
0.02734375,6148.139,-7251.868,512
0.02929688,6161.232,-7234.349,512
0.03125,6149.97,-7239.979,512
0.03320312,6140.237,-7240.66,512
0.03515625,6145.413,-7231.65,512
0.03710938,6136.559,-7236.507,512
0.0390625,6123.697,-7242.072,512
0.04101562,6123.237,-7239.055,512
0.04296875,6133.681,-7227.074,512
0.04492188,6127.635,-7229.085,512
0.046875,6122.604,-7235.703,512
0.04882812,6121.669,-7236.796,512
0.05078125,6115.301,-7242.349,512
0.05273438,6115.596,-7238.514,512
0.0546875,6121.736,-7232.455,512
0.05664062,6113.631,-7240.686,512
0.05859375,6096.3,-7260.493,512
0.06054688,6114.023,-7241.082,512
0.0625,6114.712,-7236.188,512
0.06445312,6105.71,-7244.749,512
0.06640625,6112.418,-7243.209,512
0.06835938,6116.809,-7234.497,512
0.0703125,6123.684,-7224.291,512
0.07226562,6111.016,-7233.498,512
0.07421875,6108.423,-7231.65,512
0.07617188,6096.854,-7248.593,512
0.078125,6103.06,-7246.074,512
0.08007812,6101.693,-7240.175,512
0.08203125,6102.368,-7240.499,512
0.08398438,6123.647,-7217.051,512
0.0859375,6116.931,-7221.003,512
0.08789062,6112.29,-7229.161,512
0.08984375,6106.95,-7226.703,512
0.09179688,6101.897,-7230.939,512
0.09375,6105.717,-7226.431,512
0.09570312,6103.497,-7226.237,512
0.09765625,6102.543,-7224.938,512
0.09960938,6097.189,-7231.966,512
0.1015625,6097.174,-7231.127,512
0.1035156,6093.313,-7232.408,512
0.1054688,6108.174,-7215.391,512
0.1074219,6098.389,-7230.431,512
0.109375,6107.411,-7222.744,512
0.1113281,6122.578,-7210.735,512
0.1132812,6102.319,-7225.949,512
0.1152344,6115.566,-7218.317,512
0.1171875,6127.869,-7211.861,512
0.1191406,6123.695,-7211.069,512
0.1210938,6131.152,-7201.115,512
0.1230469,6112.514,-7217.45,512
0.125,6108.582,-7225.463,512
0.1269531,6115.37,-7218.583,512
0.1289062,6127.179,-7212.046,512
0.1308594,6120.917,-7216.962,512
0.1328125,6105.579,-7233.068,512
0.1347656,6113.267,-7222.211,512
0.1367188,6111.578,-7222.177,512
0.1386719,6105.861,-7233.014,512
0.140625,6113.929,-7223.587,512
0.1425781,6118.834,-7224.903,512
0.1445312,6106.582,-7234.446,512
0.1464844,6122.772,-7216.702,512
0.1484375,6127.558,-7217.323,512
0.1503906,6110.934,-7225.877,512
0.1523438,6109.853,-7224.865,512
0.1542969,6118.144,-7212.335,512
0.15625,6108.606,-7217.901,512
0.1582031,6113.131,-7216.666,512
0.1601562,6103.239,-7230.277,512
0.1621094,6103.27,-7233.808,512
0.1640625,6102.207,-7233.169,512
0.1660156,6116.015,-7217.59,512
0.1679688,6113.14,-7221.196,512
0.1699219,6121.138,-7216.574,512
0.171875,6124.513,-7212.004,512
0.1738281,6118.226,-7215.7,512
0.1757812,6116.505,-7218.522,512
0.1777344,6120.294,-7218.032,512
0.1796875,6128.274,-7211.8,512
0.1816406,6125.212,-7214.471,512
0.1835938,6119.662,-7215.102,512
0.1855469,6123.702,-7209.641,512
0.1875,6132.357,-7201.459,512
0.1894531,6128.672,-7203.903,512
0.1914062,6127.695,-7210.306,512
0.1933594,6133.904,-7208.248,512
0.1953125,6116.241,-7217.748,512
0.1972656,6118.715,-7214.353,512
0.1992188,6121.614,-7210.657,512
0.2011719,6126.227,-7205.352,512
0.203125,6125.577,-7205.349,512
0.2050781,6119.679,-7211.686,512
0.2070312,6123.924,-7208.425,512
0.2089844,6122.195,-7217.897,512
0.2109375,6113.213,-7223.708,512
0.2128906,6126.774,-7209.238,512
0.2148438,6130.267,-7204.722,512
0.2167969,6120.282,-7214.458,512
0.21875,6120.497,-7216.956,512
0.2207031,6114.592,-7223.642,512
0.2226562,6130.884,-7212.466,512
0.2246094,6123.714,-7221.854,512
0.2265625,6121.598,-7224.656,512
0.2285156,6118.229,-7225.87,512
0.2304688,6122.901,-7222.821,512
0.2324219,6126.524,-7220.987,512
0.234375,6129.386,-7216.438,512
0.2363281,6119.625,-7221.625,512
0.2382812,6122.45,-7214.23,512
0.2402344,6119.125,-7224.253,512
0.2421875,6122.881,-7222.293,512
0.2441406,6120.975,-7218.099,512
0.2460938,6118.262,-7224.194,512
0.2480469,6124.405,-7216.118,512
0.25,6116.526,-7220.73,512
0.2519531,6128.702,-7205.557,512
0.2539062,6127.142,-7212.896,512
0.2558594,6106.639,-7228.782,512
0.2578125,6113.064,-7218.617,512
0.2597656,6115.914,-7215.265,512
0.2617188,6119.473,-7214.125,512
0.2636719,6128.887,-7206.535,512
0.265625,6112.717,-7224.627,512
0.2675781,6118.335,-7217.468,512
0.2695312,6116.364,-7212.443,512
0.2714844,6119.478,-7210.301,512
0.2734375,6122.019,-7210.191,512
0.2753906,6115.768,-7212.962,512
0.2773438,6122.553,-7210.382,512
0.2792969,6111.598,-7221.939,512
0.28125,6123.412,-7211.527,512
0.2832031,6112.981,-7218.797,512
0.2851562,6114.277,-7211.467,512
0.2871094,6110.065,-7216.66,512
0.2890625,6111.074,-7216.69,512
0.2910156,6106.928,-7219.691,512
0.2929688,6107.52,-7220.994,512
0.2949219,6098.895,-7228.486,512
0.296875,6109.206,-7215.138,512
0.2988281,6120.96,-7203.759,512
0.3007812,6105.065,-7215.639,512
0.3027344,6099.833,-7216.654,512
0.3046875,6112.856,-7203.867,512
0.3066406,6105.302,-7206.792,512
0.3085938,6099.827,-7210.994,512
0.3105469,6103.17,-7211.438,512
0.3125,6103.596,-7211.724,512
0.3144531,6115.699,-7201.376,512
0.3164062,6104.343,-7209.757,512
0.3183594,6109.691,-7205.117,512
0.3203125,6119.798,-7193.229,512
0.3222656,6116.64,-7196.222,512
0.3242188,6116.155,-7200.461,512
0.3261719,6116.557,-7198.646,512
0.328125,6115.582,-7203.466,512
0.3300781,6121.299,-7195.901,512
0.3320312,6118.007,-7198.744,512
0.3339844,6116.72,-7196.792,512
0.3359375,6109.259,-7206.4,512
0.3378906,6115.299,-7201.731,512
0.3398438,6104.642,-7209.012,512
0.3417969,6109.518,-7206.847,512
0.34375,6106.389,-7207.267,512
0.3457031,6103.18,-7211.632,512
0.3476562,6124.345,-7194.879,512
0.3496094,6123.621,-7196.175,512
0.3515625,6105.38,-7211.343,512
0.3535156,6101.357,-7210.805,512
0.3554688,6107.5,-7209.073,512
0.3574219,6104.689,-7213.797,512
0.359375,6101.668,-7218.448,512
0.3613281,6104.603,-7218.129,512
0.3632812,6107.851,-7210.407,512
0.3652344,6103.069,-7217.622,512
0.3671875,6110.432,-7202.493,512
0.3691406,6114.404,-7183.278,512
0.3710938,6114.897,-7187.336,512
0.3730469,6108.655,-7205.769,512
0.375,6106.449,-7214.476,512
0.3769531,6113.284,-7204.031,512
0.3789062,6096.182,-7216.387,512
0.3808594,6110.541,-7206.179,512
0.3828125,6114.671,-7201.812,512
0.3847656,6102.598,-7206.17,512
0.3867188,6101.905,-7206.119,512
0.3886719,6103.681,-7209.093,512
0.390625,6112.008,-7200.603,512
0.3925781,6105.37,-7209.688,512
0.3945312,6103.054,-7208.55,512
0.3964844,6096.51,-7219.816,512
0.3984375,6098.565,-7209.631,512
0.4003906,6105.638,-7202.704,512
0.4023438,6103.647,-7200.329,512
0.4042969,6105.5,-7198.077,512
0.40625,6113.02,-7198.862,512
0.4082031,6110.496,-7201.057,512
0.4101562,6104.316,-7210.796,512
0.4121094,6106.309,-7209.79,512
0.4140625,6116.221,-7200.209,512
0.4160156,6121.884,-7195.476,512
0.4179688,6113.108,-7201.656,512
0.4199219,6103.951,-7210.344,512
0.421875,6113.177,-7205.629,512
0.4238281,6112.847,-7206.61,512
0.4257812,6114.917,-7205.629,512
0.4277344,6109.357,-7209.919,512
0.4296875,6118.773,-7199.566,512
0.4316406,6114.936,-7199.699,512
0.4335938,6112.445,-7200.206,512
0.4355469,6107.121,-7200.549,512
0.4375,6107.242,-7198.04,512
0.4394531,6109.439,-7194.598,512
0.4414062,6104.868,-7199.242,512
0.4433594,6112.346,-7196.268,512
0.4453125,6109.098,-7205.019,512
0.4472656,6110.578,-7201.499,512
0.4492188,6107.577,-7203.478,512
0.4511719,6120.167,-7192.204,512
0.453125,6114.177,-7195.479,512
0.4550781,6125.557,-7183.335,512
0.4570312,6125.616,-7189.717,512
0.4589844,6116.78,-7191.26,512
0.4609375,6108.916,-7194.911,512
0.4628906,6112.586,-7196.947,512
0.4648438,6127.381,-7188.624,512
0.4667969,6123.115,-7190.854,512
0.46875,6107.686,-7202.249,512
0.4707031,6114.018,-7192.662,512
0.4726562,6126.698,-7184.806,512
0.4746094,6114.938,-7197.768,512
0.4765625,6109.183,-7203.438,512
0.4785156,6102.435,-7208.131,512
0.4804688,6118.736,-7193.583,512
0.4824219,6120.328,-7193.098,512
0.484375,6116.462,-7203.058,512
0.4863281,6113.35,-7196.434,512
0.4882812,6122.669,-7191.153,512
0.4902344,6127.037,-7182.932,512
0.4921875,6119.646,-7189.053,512
0.4941406,6107.348,-7205.166,512
0.4960938,6115.612,-7196.405,512
0.4980469,6120.434,-7195.586,512
0.5,6120.496,-7192.149,512
0.5019531,6108.496,-7204,512
0.5039062,6125.067,-7183.132,512
0.5058594,6120.976,-7186.693,512
0.5078125,6109.651,-7204.146,512
0.5097656,6111,-7207.586,512
0.5117188,6108.479,-7204.108,512
0.5136719,6110.442,-7205.011,512
0.515625,6109.108,-7206.67,512
0.5175781,6107.414,-7204.076,512
0.5195312,6112.326,-7201.254,512
0.5214844,6109.19,-7201.871,512
0.5234375,6110.172,-7203.471,512
0.5253906,6103.894,-7204.021,512
0.5273438,6109.276,-7199.624,512
0.5292969,6107.325,-7201.992,512
0.53125,6111.245,-7197.996,512
0.5332031,6107.199,-7199.314,512
0.5351562,6106.604,-7198.357,512
0.5371094,6108.126,-7201.193,512
0.5390625,6111.195,-7200.066,512
0.5410156,6118.601,-7193.233,512
0.5429688,6115.749,-7200.534,512
0.5449219,6113.088,-7204.977,512
0.546875,6117.453,-7196.267,512
0.5488281,6117.369,-7199.554,512
0.5507812,6108.961,-7208.811,512
0.5527344,6108.013,-7204.079,512
0.5546875,6105.346,-7204.527,512
0.5566406,6106.076,-7204.453,512
0.5585938,6104.1,-7209.282,512
0.5605469,6103.67,-7213.527,512
0.5625,6105.547,-7214.073,512
0.5644531,6109.804,-7213.827,512
0.5664062,6102.242,-7218.466,512
0.5683594,6096.341,-7223.594,512
0.5703125,6102.348,-7206.979,512
0.5722656,6106.525,-7205.307,512
0.5742188,6111.697,-7201.035,512
0.5761719,6116.696,-7198.315,512
0.578125,6092.72,-7219.886,512
0.5800781,6100.601,-7215.4,512
0.5820312,6109.374,-7204.491,512
0.5839844,6096.42,-7213.298,512
0.5859375,6102.215,-7208.405,512
0.5878906,6095.992,-7212.182,512
0.5898438,6099.002,-7212.821,512
0.5917969,6095.081,-7226.32,512
0.59375,6103.581,-7224.349,512
0.5957031,6108.289,-7221.935,512
0.5976562,6098.241,-7228.34,512
0.5996094,6115.558,-7212.711,512
0.6015625,6108.305,-7216.895,512
0.6035156,6106.843,-7215.04,512
0.6054688,6111.513,-7210.368,512
0.6074219,6100.99,-7223.272,512
0.609375,6089.853,-7244.244,512
0.6113281,6116.255,-7219.005,512
0.6132812,6112.535,-7218.562,512
0.6152344,6120.16,-7219.759,512
0.6171875,6118.951,-7222.957,512
0.6191406,6118.332,-7222.282,512
0.6210938,6120.444,-7219.204,512
0.6230469,6119.46,-7225,512
0.625,6127.958,-7215.567,512
0.6269531,6126.805,-7218.522,512
0.6289062,6120.149,-7222.606,512
0.6308594,6132.433,-7211.588,512
0.6328125,6126.571,-7217.006,512
0.6347656,6121.299,-7224.35,512
0.6367188,6114.607,-7242.587,512
0.6386719,6135.512,-7229.768,512
0.640625,6125.713,-7242.403,512
0.6425781,6125.369,-7244.373,512
0.6445312,6135.069,-7240.575,512
0.6464844,6138.306,-7238.95,512
0.6484375,6140.74,-7226.771,512
0.6503906,6136.976,-7221.888,512
0.6523438,6125.616,-7226.863,512
0.6542969,6101.822,-7238.056,512
0.65625,6114.279,-7229.114,512
0.6582031,6116.021,-7227.567,512
0.6601562,6113.049,-7226.641,512
0.6621094,6114.799,-7222.962,512
0.6640625,6117.157,-7218.919,512
0.6660156,6121.457,-7218.505,512
0.6679688,6111.763,-7223.495,512
0.6699219,6119.042,-7216.479,512
0.671875,6116.567,-7216.404,512
0.6738281,6099.855,-7211.675,512
0.6757812,6101.54,-7205.104,512
0.6777344,6087.684,-7213.326,512
0.6796875,6083.916,-7213.012,512
0.6816406,6090.897,-7219.736,512
0.6835938,6102.579,-7210.574,512
0.6855469,6087.543,-7206.135,512
0.6875,6087.564,-7210.044,512
0.6894531,6086.064,-7210.267,512
0.6914062,6081.779,-7214.857,512
0.6933594,6080.137,-7223.008,512
0.6953125,6089.994,-7212.436,512
0.6972656,6089.416,-7210.111,512
0.6992188,6090.154,-7207.918,512
0.7011719,6085.853,-7209.272,512
0.703125,6092.458,-7200.559,512
0.7050781,6087.929,-7204.43,512
0.7070312,6087.542,-7203.033,512
0.7089844,6097.931,-7193.273,512
0.7109375,6091.722,-7199.744,512
0.7128906,6086.02,-7203.142,512
0.7148438,6093.897,-7195.855,512
0.7167969,6091.807,-7196.72,512
0.71875,6098.576,-7192.952,512
0.7207031,6091.608,-7199.772,512
0.7226562,6084.624,-7203.18,512
0.7246094,6090.361,-7199.156,512
0.7265625,6091.519,-7200.393,512
0.7285156,6089.597,-7200.013,512
0.7304688,6089.14,-7201.078,512
0.7324219,6102.852,-7187.567,512
0.734375,6104.015,-7191.219,512
0.7363281,6092.793,-7200.578,512
0.7382812,6085.653,-7204.355,512
0.7402344,6100.543,-7188.152,512
0.7421875,6098.293,-7187.204,512
0.7441406,6075.417,-7206.647,512
0.7460938,6095.616,-7192.994,512
0.7480469,6101.514,-7192.919,512
0.75,6108.575,-7182.284,512
0.7519531,6093.715,-7191.559,512
0.7539062,6082.059,-7201.905,512
0.7558594,6096.411,-7194.028,512
0.7578125,6087.125,-7209.192,512
0.7597656,6079.974,-7208.629,512
0.7617188,6099.262,-7192.475,512
0.7636719,6096.915,-7195.213,512
0.765625,6101.032,-7189.134,512
0.7675781,6104.165,-7185.843,512
0.7695312,6105.81,-7185.9,512
0.7714844,6098.885,-7198.894,512
0.7734375,6105.019,-7189.243,512
0.7753906,6119.707,-7179.626,512
0.7773438,6103.031,-7191.763,512
0.7792969,6113.146,-7180.005,512
0.78125,6127.956,-7172.656,512
0.7832031,6121.864,-7182.309,512
0.7851562,6126.978,-7191.827,512
0.7871094,6146.375,-7199.325,512
0.7890625,6144.559,-7230.594,512
0.7910156,6153.94,-7253.912,512
0.7929688,6179.516,-7285.716,512
0.7949219,6217.581,-7307.957,512
0.796875,6239.664,-7338.737,512
0.7988281,6277.114,-7365.158,512
0.8007812,6307.963,-7379.468,512
0.8027344,6305.608,-7405.761,512
0.8046875,6302.076,-7426.502,512
0.8066406,6300.936,-7434.975,512
0.8085938,6292.128,-7438.801,512
0.8105469,6279.658,-7437.219,512
0.8125,6261.736,-7416.432,512
0.8144531,6239.614,-7392.263,512
0.8164062,6223.836,-7370.083,512
0.8183594,6220.98,-7336.626,512
0.8203125,6194.566,-7315.317,512
0.8222656,6168.115,-7282.649,512
0.8242188,6137.976,-7249.54,512
0.8261719,6106.614,-7237.62,512
0.828125,6092.985,-7229.661,512
0.8300781,6093.142,-7224.604,512
0.8320312,6100.929,-7201.615,512
0.8339844,6101.351,-7191.612,512
0.8359375,6092.448,-7198.91,512
0.8378906,6100.203,-7195.898,512
0.8398438,6103.562,-7194.88,512
0.8417969,6098.627,-7198.73,512
0.84375,6093.073,-7205.866,512
0.8457031,6092.691,-7206.172,512
0.8476562,6099.068,-7198.117,512
0.8496094,6103.476,-7190.861,512
0.8515625,6111.13,-7179.384,512
0.8535156,6095.56,-7188.417,512
0.8554688,6093.289,-7191.973,512
0.8574219,6101.51,-7184.684,512
0.859375,6104.485,-7181.716,512
0.8613281,6098.104,-7183.345,512
0.8632812,6105.236,-7178.924,512
0.8652344,6095.85,-7192.754,512
0.8671875,6097.947,-7192.086,512
0.8691406,6107.122,-7180.483,512
0.8710938,6116.692,-7172.574,512
0.8730469,6117.779,-7174.167,512
0.875,6117.356,-7177.234,512
0.8769531,6106.162,-7186.702,512
0.8789062,6105.672,-7185.734,512
0.8808594,6120.978,-7178.609,512
0.8828125,6113.642,-7180.183,512
0.8847656,6113.527,-7180.35,512
0.8867188,6120.192,-7173.155,512
0.8886719,6122.034,-7172.672,512
0.890625,6112.844,-7177.264,512
0.8925781,6124.487,-7168.489,512
0.8945312,6107.318,-7192.431,512
0.8964844,6112.524,-7188.508,512
0.8984375,6118.08,-7185.494,512
0.9003906,6120.615,-7167.809,512
0.9023438,6117.648,-7176.032,512
0.9042969,6116.396,-7177.977,512
0.90625,6121.329,-7174.411,512
0.9082031,6116.562,-7185.188,512
0.9101562,6109.28,-7191.627,512
0.9121094,6099.253,-7199.362,512
0.9140625,6104.985,-7186.688,512
0.9160156,6103.654,-7183.768,512
0.9179688,6107.678,-7179.146,512
0.9199219,6114.48,-7174.337,512
0.921875,6107.676,-7182.299,512
0.9238281,6112.174,-7183.706,512
0.9257812,6123.09,-7173.091,512
0.9277344,6108.03,-7195.539,512
0.9296875,6111.744,-7193.99,512
0.9316406,6111.971,-7189.16,512
0.9335938,6114.83,-7189.16,512
0.9355469,6126.603,-7175.416,512
0.9375,6125.611,-7182.663,512
0.9394531,6117.976,-7181.858,512
0.9414062,6104.37,-7196.298,512
0.9433594,6111.754,-7193.739,512
0.9453125,6107.092,-7197.706,512
0.9472656,6105.961,-7196.864,512
0.9492188,6094.152,-7204.225,512
0.9511719,6101.564,-7198.296,512
0.953125,6117.649,-7183.468,512
0.9550781,6110.865,-7188.089,512
0.9570312,6110.254,-7186.457,512
0.9589844,6101.631,-7202.556,512
0.9609375,6104.856,-7202.281,512
0.9628906,6113.445,-7191.102,512
0.9648438,6117.696,-7189.655,512
0.9667969,6122.228,-7186.446,512
0.96875,6122.286,-7177.006,512
0.9707031,6108.733,-7191.349,512
0.9726562,6113.626,-7192.55,512
0.9746094,6103.928,-7206.74,512
0.9765625,6104.349,-7209.966,512
0.9785156,6104,-7209.789,512
0.9804688,6115.614,-7203.793,512
0.9824219,6098.378,-7214.857,512
0.984375,6111.198,-7206.205,512
0.9863281,6125.526,-7195.966,512
0.9882812,6110.37,-7209.664,512
0.9902344,6111.961,-7209.119,512
0.9921875,6130.327,-7193.06,512
0.9941406,6117.619,-7205.858,512
0.9960938,6120.002,-7207.664,512
0.9980469,6130.016,-7198.161,512
1,6126.685,-7200.372,512
1.001953,6124.918,-7198.755,512
1.003906,6118.612,-7205.968,512
1.005859,6124.962,-7200.035,512
1.007812,6131.489,-7196.099,512
1.009766,6123.114,-7213.02,512
1.011719,6110.131,-7222.371,512
1.013672,6118.946,-7214.487,512
1.015625,6121.403,-7208.732,512
1.017578,6122.529,-7206.813,512
1.019531,6133.647,-7199.219,512
1.021484,6133.01,-7203.274,512
1.023438,6127.931,-7211.768,512
1.025391,6128.079,-7213.279,512
1.027344,6111.963,-7232.757,512
1.029297,6127.291,-7224.11,512
1.03125,6136.919,-7211.67,512
1.033203,6139.155,-7210.964,512
1.035156,6139.33,-7212.048,512
1.037109,6140.839,-7213.678,512
1.039062,6133.138,-7225.456,512
1.041016,6149.23,-7214.685,512
1.042969,6152.257,-7217.916,512
1.044922,6146.579,-7234.244,512
1.046875,6151.32,-7202.53,512
1.048828,6150.265,-7206.995,512
1.050781,6149.535,-7219.597,512
1.052734,6165.522,-7202.096,512
1.054688,6174.778,-7195.441,512
1.056641,6176.875,-7198.364,512
1.058594,6168.383,-7209.713,512
1.060547,6181.599,-7200.851,512
1.0625,6178.193,-7208.314,512
1.064453,6179.322,-7208.409,512
1.066406,6184.501,-7205.712,512
1.068359,6181.468,-7208.294,512
1.070312,6176.986,-7209.418,512
1.072266,6190.015,-7197.086,512
1.074219,6185.832,-7206.804,512
1.076172,6186.16,-7211.536,512
1.078125,6181.692,-7216.404,512
1.080078,6175.119,-7224.538,512
1.082031,6192.328,-7204.07,512
1.083984,6201.127,-7193.338,512
1.085938,6198.368,-7199.332,512
1.087891,6193.131,-7203.985,512
1.089844,6193.508,-7203.77,512
1.091797,6201.883,-7199.396,512
1.09375,6184.155,-7218.873,512
1.095703,6194.383,-7214.357,512
1.097656,6194.598,-7211.854,512
1.099609,6195.61,-7207.686,512
1.101562,6207.369,-7198.5,512
1.103516,6182.909,-7219.424,512
1.105469,6195.778,-7204.962,512
1.107422,6187.136,-7210.748,512
1.109375,6191.145,-7200.602,512
1.111328,6177.732,-7210.083,512
1.113281,6187.137,-7197.79,512
1.115234,6182.948,-7194,512
1.117188,6168.9,-7196.291,512
1.119141,6171.963,-7193.742,512
1.121094,6161.33,-7197.947,512
1.123047,6163.285,-7193.699,512
1.125,6154.68,-7198.957,512
1.126953,6150.982,-7197.124,512
1.128906,6147.238,-7199.237,512
1.130859,6140.055,-7193.31,512
1.132812,6147.547,-7186.54,512
1.134766,6140.934,-7193.808,512
1.136719,6130.763,-7195.334,512
1.138672,6130.894,-7191.328,512
1.140625,6122.334,-7198.738,512
1.142578,6126.268,-7192.788,512
1.144531,6128.432,-7190.254,512
1.146484,6131.035,-7182.786,512
1.148438,6127.613,-7177.902,512
1.150391,6123.874,-7175.446,512
1.152344,6128.947,-7174.062,512
1.154297,6118.63,-7181.832,512
1.15625,6106.028,-7191.479,512
1.158203,6107.263,-7186.155,512
1.160156,6102.022,-7197.656,512
1.162109,6094.987,-7206.837,512
1.164062,6104.607,-7184.392,512
1.166016,6111.677,-7182.218,512
1.167969,6106.531,-7190.114,512
1.169922,6099.484,-7193.449,512
1.171875,6109.955,-7185.426,512
1.173828,6108.905,-7184.055,512
1.175781,6108.802,-7186.239,512
1.177734,6116.386,-7180.124,512
1.179688,6113.907,-7184.399,512
1.181641,6118.219,-7182.618,512
1.183594,6118.07,-7176.273,512
1.185547,6110.4,-7179.933,512
1.1875,6113.309,-7182.479,512
1.189453,6116.352,-7180.991,512
1.191406,6113.033,-7180.629,512
1.193359,6108.573,-7187.591,512
1.195312,6115.672,-7179.481,512
1.197266,6101.511,-7199.275,512
1.199219,6106.669,-7178.284,512
1.201172,6112.703,-7173.234,512
1.203125,6106.349,-7192.167,512
1.205078,6098.181,-7192.981,512
1.207031,6100.609,-7191.21,512
1.208984,6096.824,-7197.434,512
1.210938,6094.136,-7201.572,512
1.212891,6091.32,-7200.575,512
1.214844,6109.01,-7184.318,512
1.216797,6112.049,-7178.951,512
1.21875,6113.459,-7180.156,512
1.220703,6116.65,-7173.508,512
1.222656,6116.129,-7173.141,512
1.224609,6119.511,-7173.018,512
1.226562,6115.235,-7177.806,512
1.228516,6109.86,-7185.697,512
1.230469,6122.319,-7174.408,512
1.232422,6129.077,-7170.407,512
1.234375,6132.119,-7168.664,512
1.236328,6125.962,-7173.035,512
1.238281,6126.163,-7176.704,512
1.240234,6129.813,-7175.262,512
1.242188,6116.901,-7188.957,512
1.244141,6103.13,-7196.83,512
1.246094,6113.247,-7188.089,512
1.248047,6105.067,-7195.239,512
1.25,6118.795,-7177.934,512
1.251953,6117.44,-7185.661,512
1.253906,6101.515,-7205.178,512
1.255859,6108.45,-7201.643,512
1.257812,6110.473,-7203.638,512
1.259766,6111.367,-7195.555,512
1.261719,6109.311,-7196.075,512
1.263672,6103.911,-7201.357,512
1.265625,6121.923,-7179.213,512
1.267578,6121.644,-7181.104,512
1.269531,6130.283,-7174.19,512
1.271484,6129.991,-7174.354,512
1.273438,6122.903,-7179.824,512
1.275391,6126.183,-7184.411,512
1.277344,6123.251,-7182.584,512
1.279297,6117.252,-7188.535,512
1.28125,6121.441,-7180.895,512
1.283203,6119.964,-7181.558,512
1.285156,6113.748,-7188.557,512
1.287109,6128.093,-7174.398,512
1.289062,6126.935,-7179.872,512
1.291016,6121.052,-7181.748,512
1.292969,6128.558,-7170.813,512
1.294922,6140.878,-7167.371,512
1.296875,6135.544,-7175.831,512
1.298828,6134.265,-7176.287,512
1.300781,6122.062,-7187.547,512
1.302734,6125.794,-7178.879,512
1.304688,6134.22,-7172.402,512
1.306641,6123.468,-7186.795,512
1.308594,6114.717,-7205.403,512
1.310547,6110.091,-7206.257,512
1.3125,6113.056,-7201.026,512
1.314453,6128.917,-7187.624,512
1.316406,6122.266,-7192.287,512
1.318359,6107.969,-7204.735,512
1.320312,6118.77,-7193.025,512
1.322266,6106.333,-7206.176,512
1.324219,6108.373,-7207.629,512
1.326172,6115.679,-7204.354,512
1.328125,6104.76,-7210.618,512
1.330078,6109.69,-7207.859,512
1.332031,6100.56,-7213.562,512
1.333984,6105.922,-7199.516,512
1.335938,6109.741,-7208.903,512
1.337891,6106.862,-7213.934,512
1.339844,6111.965,-7212.838,512
1.341797,6111.964,-7213.592,512
1.34375,6100.583,-7207.516,512
1.345703,6103.759,-7217.637,512
1.347656,6102.697,-7211.278,512
1.349609,6100.376,-7210.689,512
1.351562,6098.907,-7208.757,512
1.353516,6104.583,-7201.323,512
1.355469,6106.134,-7198.986,512
1.357422,6120.19,-7198.354,512
1.359375,6121.43,-7204.556,512
1.361328,6120.569,-7199.367,512
1.363281,6116.283,-7208.606,512
1.365234,6120.922,-7203.279,512
1.367188,6117.83,-7189.544,512
1.369141,6110.464,-7198.61,512
1.371094,6111.809,-7199.83,512
1.373047,6109.302,-7201.453,512
1.375,6112.711,-7200.516,512
1.376953,6108.402,-7209.231,512
1.378906,6104.905,-7218.544,512
1.380859,6104.278,-7211.135,512
1.382812,6109.7,-7207.359,512
1.384766,6105.095,-7212.111,512
1.386719,6104.352,-7213.773,512
1.388672,6111.041,-7206.143,512
1.390625,6110.387,-7211.903,512
1.392578,6107.228,-7209.709,512
1.394531,6109.957,-7206.058,512
1.396484,6108.447,-7206.099,512
1.398438,6106.037,-7211.363,512
1.400391,6108.394,-7207.06,512
1.402344,6105.868,-7205.751,512
1.404297,6113.579,-7197.76,512
1.40625,6106.06,-7202.771,512
1.408203,6105.832,-7206.207,512
1.410156,6105.949,-7206.662,512
1.412109,6109.55,-7212.445,512
1.414062,6111.544,-7204.809,512
1.416016,6101.215,-7209.406,512
1.417969,6107.863,-7203.802,512
1.419922,6116.748,-7193.895,512
1.421875,6118.754,-7191.945,512
1.423828,6106.114,-7195.959,512
1.425781,6102.04,-7204.732,512
1.427734,6099.96,-7211.215,512
1.429688,6113.429,-7202.176,512
1.431641,6113.26,-7196.599,512
1.433594,6095.383,-7216.222,512
1.435547,6102.374,-7195.158,512
1.4375,6106.438,-7193.215,512
1.439453,6102.744,-7208.37,512
1.441406,6099.873,-7216.046,512
1.443359,6116.867,-7198.257,512
1.445312,6105.67,-7207.182,512
1.447266,6101.713,-7213.664,512
1.449219,6106.991,-7204.389,512
1.451172,6107.303,-7204.447,512
1.453125,6108.42,-7197.774,512
1.455078,6100.903,-7201.303,512
1.457031,6105.22,-7202.337,512
1.458984,6088.353,-7214.907,512
1.460938,6100.475,-7216.621,512
1.462891,6090.963,-7221.793,512
1.464844,6093.617,-7211.958,512
1.466797,6110.992,-7197.453,512
1.46875,6109.482,-7191.708,512
1.470703,6090.303,-7206.739,512
1.472656,6095.484,-7203.922,512
1.474609,6096.815,-7204.755,512
1.476562,6094.612,-7206.579,512
1.478516,6088.332,-7211.497,512
1.480469,6102.622,-7199.866,512
1.482422,6096.733,-7201.805,512
1.484375,6096.542,-7199.2,512
1.486328,6098.778,-7196.776,512
1.488281,6091.668,-7202.142,512
1.490234,6088.975,-7204.61,512
1.492188,6086.721,-7209.636,512
1.494141,6096.205,-7201.133,512
1.496094,6089.365,-7204.384,512
1.498047,6096.083,-7197.963,512
1.5,6106.628,-7186.577,512
1.501953,6100.664,-7194.181,512
1.503906,6096.053,-7200.56,512
1.505859,6096.979,-7194.408,512
1.507812,6103.859,-7183.487,512
1.509766,6097.88,-7188.951,512
1.511719,6106.64,-7187.62,512
1.513672,6112.896,-7184.594,512
1.515625,6103.526,-7187.994,512
1.517578,6095.059,-7196.886,512
1.519531,6091.234,-7194.881,512
1.521484,6107.587,-7184.442,512
1.523438,6102.074,-7189.911,512
1.525391,6105.636,-7186.751,512
1.527344,6108.219,-7184.981,512
1.529297,6097.333,-7194.458,512
1.53125,6096.343,-7198.708,512
1.533203,6103.904,-7191.597,512
1.535156,6106.124,-7194.788,512
1.537109,6106.667,-7189.458,512
1.539062,6107.4,-7188.955,512
1.541016,6098.493,-7197.531,512
1.542969,6100.71,-7199.46,512
1.544922,6111.937,-7187.362,512
1.546875,6114.226,-7184.325,512
1.548828,6107.706,-7194.095,512
1.550781,6113.666,-7182.769,512
1.552734,6109.05,-7181.241,512
1.554688,6105.56,-7183.705,512
1.556641,6111.245,-7169.172,512
1.558594,6104.376,-7189.085,512
1.560547,6108.962,-7193.55,512
1.5625,6101.854,-7202.995,512
1.564453,6098.81,-7201.018,512
1.566406,6109.095,-7187.575,512
1.568359,6112.343,-7187.375,512
1.570312,6106.855,-7193.746,512
1.572266,6101.02,-7183.522,512
1.574219,6102.651,-7197.173,512
1.576172,6108.468,-7191.911,512
1.578125,6098.791,-7201.344,512
1.580078,6100.743,-7201.512,512
1.582031,6106.119,-7192.732,512
1.583984,6108.211,-7191.381,512
1.585938,6103.762,-7190.993,512
1.587891,6097.538,-7198.112,512
1.589844,6102.232,-7193.821,512
1.591797,6103.95,-7193.323,512
1.59375,6106.026,-7193.136,512
1.595703,6094.708,-7203.217,512
1.597656,6094.208,-7206.003,512
1.599609,6110.166,-7191.186,512
1.601562,6094.127,-7198.196,512
1.603516,6104.812,-7197.15,512
1.605469,6108.61,-7191.333,512
1.607422,6102.438,-7193.135,512
1.609375,6095.409,-7207.655,512
1.611328,6106.635,-7198.641,512
1.613281,6097.451,-7216.636,512
1.615234,6096.988,-7209.108,512
1.617188,6100.278,-7198.504,512
1.619141,6105.137,-7195.142,512
1.621094,6097.897,-7200.851,512
1.623047,6105.116,-7194.001,512
1.625,6098.336,-7205.925,512
1.626953,6100.464,-7200.508,512
1.628906,6097.509,-7202.547,512
1.630859,6091.591,-7211.064,512
1.632812,6094.553,-7201.033,512
1.634766,6090.667,-7206.572,512
1.636719,6108.917,-7198.389,512
1.638672,6103.178,-7203.709,512
1.640625,6084.607,-7210.656,512
1.642578,6097.749,-7200.499,512
1.644531,6095.924,-7207.117,512
1.646484,6099.017,-7203.86,512
1.648438,6091.738,-7206.49,512
1.650391,6089.016,-7219.907,512
1.652344,6091.12,-7210.412,512
1.654297,6086.076,-7205.016,512
1.65625,6096.89,-7200.499,512
1.658203,6099.856,-7203.831,512
1.660156,6104.397,-7204.562,512
1.662109,6122.044,-7192.957,512
1.664062,6112.44,-7205.831,512
1.666016,6116.459,-7194.725,512
1.667969,6122.791,-7188.473,512
1.669922,6102.425,-7205.864,512
1.671875,6104.686,-7204.788,512
1.673828,6114.206,-7197.801,512
1.675781,6117.237,-7198.847,512
1.677734,6104.85,-7214.336,512
1.679688,6105.112,-7214.977,512
1.681641,6107.924,-7215.183,512
1.683594,6114.666,-7215.596,512
1.685547,6119.696,-7220.424,512
1.6875,6129.902,-7211.011,512
1.689453,6128.957,-7223.821,512
1.691406,6132.224,-7228.5,512
1.693359,6120.517,-7234.961,512
1.695312,6122.696,-7240.747,512
1.697266,6129.703,-7208.385,512
1.699219,6128.191,-7199.387,512
1.701172,6129.243,-7194.98,512
1.703125,6129.938,-7188.778,512
1.705078,6125.852,-7191.174,512
1.707031,6126.229,-7197.638,512
1.708984,6111.864,-7205.497,512
1.710938,6109.976,-7204.975,512
1.712891,6118.515,-7197.083,512
1.714844,6122.599,-7192.485,512
1.716797,6116.023,-7197.358,512
1.71875,6113.354,-7198.749,512
1.720703,6117.592,-7192.322,512
1.722656,6100.934,-7187.944,512
1.724609,6096.272,-7185.325,512
1.726562,6081.555,-7194.915,512
1.728516,6076.548,-7198.937,512
1.730469,6094.1,-7192.632,512
1.732422,6086.891,-7194.249,512
1.734375,6087.284,-7190.528,512
1.736328,6089.601,-7195.71,512
1.738281,6088.634,-7196.22,512
1.740234,6095.869,-7193.686,512
1.742188,6086.382,-7196.717,512
1.744141,6078.129,-7200.481,512
1.746094,6083.972,-7210.491,512
1.748047,6088.264,-7191.076,512
1.75,6094.722,-7183.395,512
1.751953,6094.15,-7177.552,512
1.753906,6102.154,-7169.675,512
1.755859,6094.792,-7180.722,512
1.757812,6089.537,-7184.962,512
1.759766,6086.692,-7191.643,512
1.761719,6076.252,-7198.982,512
1.763672,6092.607,-7188.787,512
1.765625,6081.974,-7195.758,512
1.767578,6093.936,-7180.682,512
1.769531,6098.304,-7175.163,512
1.771484,6097.341,-7180.258,512
1.773438,6091.308,-7186.94,512
1.775391,6083.869,-7198.25,512
1.777344,6089.98,-7196.166,512
1.779297,6089.479,-7192.033,512
1.78125,6095.857,-7186.501,512
1.783203,6091.221,-7188.012,512
1.785156,6096.655,-7181.887,512
1.787109,6096.059,-7179.538,512
1.789062,6091.59,-7187.802,512
1.791016,6086.012,-7193.227,512
1.792969,6092.939,-7191.214,512
1.794922,6103.654,-7184.628,512
1.796875,6094.794,-7190.505,512
1.798828,6091.159,-7191.331,512
1.800781,6088.58,-7182.863,512
1.802734,6081.217,-7188.791,512
1.804688,6073.015,-7201.609,512
1.806641,6081.064,-7198.236,512
1.808594,6087.252,-7194.08,512
1.810547,6087.328,-7192.685,512
1.8125,6086.562,-7194.731,512
1.814453,6091.84,-7191.281,512
1.816406,6102.871,-7184.892,512
1.818359,6096.575,-7192.628,512
1.820312,6107.218,-7185.634,512
1.822266,6112.418,-7178.992,512
1.824219,6116.976,-7183.402,512
1.826172,6131.032,-7152.654,512
1.828125,6117.155,-7173.46,512
1.830078,6112.642,-7188.743,512
1.832031,6124.764,-7192.939,512
1.833984,6143.673,-7177.086,512
1.835938,6149.499,-7195.347,512
1.837891,6156.224,-7211.835,512
1.839844,6175.943,-7229.51,512
1.841797,6204.763,-7255.596,512
1.84375,6228.113,-7300.331,512
1.845703,6256.568,-7328.455,512
1.847656,6274.447,-7357.999,512
1.849609,6290.836,-7383.947,512
1.851562,6302.467,-7391.905,512
1.853516,6289.563,-7415.935,512
1.855469,6270.577,-7429.721,512
1.857422,6270.306,-7416.159,512
1.859375,6247.736,-7406.452,512
1.861328,6222.548,-7383.517,512
1.863281,6220.937,-7349.533,512
1.865234,6205.363,-7332.008,512
1.867188,6188.102,-7316,512
1.869141,6162.372,-7291.221,512
1.871094,6122.686,-7255.449,512
1.873047,6105.272,-7221.585,512
1.875,6095.922,-7210.978,512
1.876953,6086.726,-7209.2,512
1.878906,6080.151,-7206.63,512
1.880859,6082.216,-7203.578,512
1.882812,6092.995,-7182.98,512
1.884766,6092.351,-7186.1,512
1.886719,6094.851,-7188.788,512
1.888672,6105.322,-7172.716,512
1.890625,6098.629,-7185.868,512
1.892578,6105.924,-7183.729,512
1.894531,6096.799,-7192.269,512
1.896484,6108.306,-7178.054,512
1.898438,6103.837,-7179.581,512
1.900391,6100.901,-7182.463,512
1.902344,6104.914,-7181.116,512
1.904297,6117.792,-7169.449,512
1.90625,6114.276,-7164.33,512
1.908203,6102.992,-7177.262,512
1.910156,6098.79,-7183.765,512
1.912109,6104.906,-7174.082,512
1.914062,6102.664,-7176.02,512
1.916016,6108.09,-7177.282,512
1.917969,6105.087,-7178.896,512
1.919922,6099.094,-7185.533,512
1.921875,6104.88,-7179.919,512
1.923828,6104.467,-7179.399,512
1.925781,6091.578,-7194.75,512
1.927734,6089.479,-7196.606,512
1.929688,6098.414,-7191.451,512
1.931641,6100.485,-7192.812,512
1.933594,6103.29,-7184.086,512
1.935547,6097.682,-7184.08,512
1.9375,6104.981,-7178.172,512
1.939453,6115.068,-7170.634,512
1.941406,6107.13,-7180.902,512
1.943359,6105.6,-7183.138,512
1.945312,6112.714,-7181.609,512
1.947266,6115.359,-7183.812,512
1.949219,6122.716,-7177.552,512
1.951172,6110.105,-7183.518,512
1.953125,6110.768,-7183.688,512
1.955078,6117.622,-7176.56,512
1.957031,6113.73,-7180.339,512
1.958984,6105.888,-7189.041,512
1.960938,6102.882,-7197.098,512
1.962891,6099.757,-7206.413,512
1.964844,6079.392,-7222.347,512
1.966797,6109.256,-7184.087,512
1.96875,6115.642,-7179.979,512
1.970703,6107.785,-7181.198,512
1.972656,6114.505,-7192.188,512
1.974609,6104.748,-7193.348,512
1.976562,6110.532,-7181.256,512
1.978516,6107.912,-7192.437,512
1.980469,6115.276,-7181.394,512
1.982422,6106.585,-7183.306,512
1.984375,6108.505,-7178.194,512
1.986328,6116.181,-7171.412,512
1.988281,6123.911,-7169.558,512
1.990234,6125.425,-7163.792,512
1.992188,6123.857,-7170.323,512
1.994141,6117.813,-7169.765,512
1.996094,6099.5,-7190.743,512
1.998047,6108.103,-7190.59,512
2,6120.451,-7185.929,512
2.001953,6119.164,-7184.542,512
2.003906,6109.991,-7184.191,512
2.005859,6109.843,-7190.437,512
2.007812,6101.066,-7195.8,512
2.009766,6104.16,-7193.508,512
2.011719,6097.883,-7205.381,512
2.013672,6088.57,-7210.509,512
2.015625,6108.375,-7188.311,512
2.017578,6111.286,-7183.499,512
2.019531,6099.442,-7201.54,512
2.021484,6111.203,-7189.228,512
2.023438,6101.893,-7202.366,512
2.025391,6103.306,-7201.24,512
2.027344,6095.479,-7203.09,512
2.029297,6104.41,-7200.159,512
2.03125,6102.432,-7205.346,512
2.033203,6126.435,-7176.242,512
2.035156,6138.31,-7164.845,512
2.037109,6132.918,-7173.371,512
2.039062,6124.897,-7185.212,512
2.041016,6124.905,-7186.858,512
2.042969,6123.545,-7192.16,512
2.044922,6128.628,-7190.398,512
2.046875,6134.832,-7183.593,512
2.048828,6131.804,-7185.506,512
2.050781,6126.165,-7186.693,512
2.052734,6136.196,-7186.997,512
2.054688,6126.012,-7199.478,512
2.056641,6130.418,-7199.995,512
2.058594,6135.601,-7197.822,512
2.060547,6140.206,-7190.694,512
2.0625,6136.144,-7192.811,512
2.064453,6127.173,-7208.67,512
2.066406,6131.816,-7203.789,512
2.068359,6135.142,-7201.467,512
2.070312,6125.649,-7210.001,512
2.072266,6131.634,-7211.284,512
2.074219,6131.306,-7225.864,512
2.076172,6123.322,-7223.534,512
2.078125,6129.314,-7218.957,512
2.080078,6144.583,-7214.227,512
2.082031,6140.979,-7217.479,512
2.083984,6148.671,-7205.941,512
2.085938,6159.627,-7199.097,512
2.087891,6152.287,-7200.572,512
2.089844,6141.447,-7199.616,512
2.091797,6147.917,-7199.071,512
2.09375,6149.185,-7218.176,512
2.095703,6158.437,-7216.111,512
2.097656,6155.857,-7213.379,512
2.099609,6157.984,-7217.536,512
2.101562,6159.535,-7212.628,512
2.103516,6155.795,-7220.667,512
2.105469,6162.503,-7214.958,512
2.107422,6171.154,-7206.371,512
2.109375,6179.92,-7193.448,512
2.111328,6171.414,-7212.818,512
2.113281,6166.751,-7219.724,512
2.115234,6170.158,-7221.571,512
2.117188,6176.051,-7215.477,512
2.119141,6188.97,-7216.347,512
2.121094,6193.944,-7208.01,512
2.123047,6178.145,-7214.595,512
2.125,6182.195,-7223.179,512
2.126953,6178.034,-7230.68,512
2.128906,6186.829,-7228.654,512
2.130859,6181.902,-7229.249,512
2.132812,6195.756,-7213.86,512
2.134766,6196.455,-7213.343,512
2.136719,6193.807,-7217.6,512
2.138672,6207.061,-7207.62,512
2.140625,6194.473,-7217.262,512
2.142578,6189.506,-7230.002,512
2.144531,6204.341,-7203.755,512
2.146484,6208.02,-7205.216,512
2.148438,6190.941,-7220.218,512
2.150391,6203.243,-7202.25,512
2.152344,6203.756,-7202.135,512
2.154297,6207.174,-7196.907,512
2.15625,6195.646,-7200.213,512
2.158203,6186.027,-7205.225,512
2.160156,6186.901,-7196.778,512
2.162109,6173.986,-7202.747,512
2.164062,6167.821,-7201.897,512
2.166016,6183.235,-7186.381,512
2.167969,6168.43,-7187.885,512
2.169922,6159.997,-7194.835,512
2.171875,6162.327,-7191.869,512
2.173828,6156.929,-7197.938,512
2.175781,6151.112,-7201.546,512
2.177734,6160.645,-7193.576,512
2.179688,6158.28,-7180.188,512
2.181641,6141.02,-7189.061,512
2.183594,6130.12,-7194.574,512
2.185547,6134.011,-7191.176,512
2.1875,6136.154,-7179.908,512
2.189453,6121.765,-7190.377,512
2.191406,6121.952,-7197.117,512
2.193359,6124.152,-7194.86,512
2.195312,6120.713,-7197.297,512
2.197266,6122.234,-7188.871,512
2.199219,6118.193,-7185.975,512
2.201172,6107.775,-7189.356,512
2.203125,6099.198,-7193.675,512
2.205078,6102.705,-7191.815,512
2.207031,6103.51,-7187.687,512
2.208984,6102.607,-7187.542,512
2.210938,6099.118,-7188.073,512
2.212891,6104.906,-7184.706,512
2.214844,6102.998,-7180.431,512
2.216797,6095.453,-7189.699,512
2.21875,6102.065,-7181.397,512
2.220703,6099.755,-7175.04,512
2.222656,6100.444,-7178.655,512
2.224609,6098.344,-7179.516,512
2.226562,6089.094,-7189.018,512
2.228516,6080.615,-7193.926,512
2.230469,6098.942,-7179.967,512
2.232422,6097.408,-7183.148,512
2.234375,6096.2,-7183.508,512
2.236328,6093.271,-7185.635,512
2.238281,6099.521,-7169.511,512
2.240234,6094.716,-7177.41,512
2.242188,6100.4,-7182.567,512
2.244141,6096.357,-7182.597,512
2.246094,6085.684,-7186.487,512
2.248047,6085.107,-7188.393,512
2.25,6081.508,-7192.289,512
2.251953,6098.2,-7174.318,512
2.253906,6098.194,-7179.686,512
2.255859,6088.847,-7181.043,512
2.257812,6084.128,-7188.128,512
2.259766,6091.475,-7182.847,512
2.261719,6090.963,-7184.725,512
2.263672,6099.458,-7176.908,512
2.265625,6104.022,-7165.144,512
2.267578,6095.034,-7172.656,512
2.269531,6088.82,-7188.419,512
2.271484,6100.05,-7172.613,512
2.273438,6111.951,-7164.447,512
2.275391,6101.605,-7177.251,512
2.277344,6086.024,-7173.58,512
2.279297,6091.035,-7169.471,512
2.28125,6083.375,-7181.262,512
2.283203,6085.993,-7179.892,512
2.285156,6090.248,-7179.903,512
2.287109,6093.693,-7185.669,512
2.289062,6096.109,-7190.159,512
2.291016,6104.278,-7172.561,512
2.292969,6103.289,-7177.13,512
2.294922,6099.964,-7190.583,512
2.296875,6098.478,-7190.737,512
2.298828,6100.78,-7182.453,512
2.300781,6103.801,-7180.095,512
2.302734,6105.439,-7180.062,512
2.304688,6110.701,-7169.878,512
2.306641,6106.705,-7170.783,512
2.308594,6104.861,-7177.672,512
2.310547,6105.604,-7172.906,512
2.3125,6107.836,-7163.516,512
2.314453,6118.013,-7159.139,512
2.316406,6105.959,-7169.037,512
2.318359,6088.882,-7188.937,512
2.320312,6098.406,-7184.216,512
2.322266,6092.284,-7185.64,512
2.324219,6093.112,-7198.631,512
2.326172,6107.573,-7179.351,512
2.328125,6099.352,-7180.665,512
2.330078,6102.575,-7181.567,512
2.332031,6100.574,-7182.939,512
2.333984,6099.817,-7180.675,512
2.335938,6098.71,-7181.407,512
2.337891,6101.106,-7180.667,512
2.339844,6108.072,-7173.089,512
2.341797,6109.302,-7179.166,512
2.34375,6105.521,-7181.25,512
2.345703,6098.763,-7184.171,512
2.347656,6101.265,-7179.796,512
2.349609,6108.45,-7171.156,512
2.351562,6094.742,-7183.516,512
2.353516,6109.852,-7168.072,512
2.355469,6109.139,-7169.114,512
2.357422,6097.599,-7177.265,512
2.359375,6095.917,-7176.05,512
2.361328,6088.931,-7184.655,512
2.363281,6094.227,-7177.942,512
2.365234,6102.284,-7172.92,512
2.367188,6092.084,-7187.365,512
2.369141,6100.877,-7172.883,512
2.371094,6109.352,-7168.547,512
2.373047,6098.957,-7176.263,512
2.375,6101.033,-7172.358,512
2.376953,6092.019,-7180.743,512
2.378906,6095.89,-7175.294,512
2.380859,6116.759,-7171.255,512
2.382812,6104.654,-7181.763,512
2.384766,6092.15,-7171.811,512
2.386719,6096.562,-7174.059,512
2.388672,6095.453,-7169.956,512
2.390625,6086.102,-7180.205,512
2.392578,6099.836,-7173.836,512
2.394531,6100.851,-7175.44,512
2.396484,6106.483,-7172.666,512
2.398438,6102.208,-7176.255,512
2.400391,6109.493,-7168.002,512
2.402344,6113.175,-7162.304,512
2.404297,6102.49,-7173.246,512
2.40625,6099.249,-7165.567,512
2.408203,6102.201,-7171.962,512
2.410156,6096.121,-7175.111,512
2.412109,6095.298,-7173.278,512
2.414062,6100.953,-7173.009,512
2.416016,6097.838,-7173.75,512
2.417969,6094.835,-7174.281,512
2.419922,6103.521,-7167.082,512
2.421875,6101.864,-7166.396,512
2.423828,6096.859,-7174.321,512
2.425781,6095.89,-7177.462,512
2.427734,6098.962,-7172.659,512
2.429688,6097.572,-7175.617,512
2.431641,6088.739,-7183.946,512
2.433594,6107.671,-7164.343,512
2.435547,6100.469,-7170.969,512
2.4375,6093.799,-7176.618,512
2.439453,6102.57,-7169.711,512
2.441406,6094.704,-7173.802,512
2.443359,6096.952,-7173.139,512
2.445312,6104.762,-7165.556,512
2.447266,6102.704,-7163.896,512
2.449219,6100.52,-7167.326,512
2.451172,6091.306,-7169.713,512
2.453125,6102.76,-7158.515,512
2.455078,6095.613,-7168.344,512
2.457031,6094.643,-7166.16,512
2.458984,6096.756,-7164.234,512
2.460938,6098.618,-7174.688,512
2.462891,6094.349,-7179.633,512
2.464844,6098.806,-7169.551,512
2.466797,6101.425,-7165.904,512
2.46875,6108.401,-7155.604,512
2.470703,6100.825,-7162.578,512
2.472656,6093.939,-7172.39,512
2.474609,6091.312,-7169.062,512
2.476562,6085.135,-7177.915,512
2.478516,6087.229,-7184.68,512
2.480469,6090.574,-7177.356,512
2.482422,6092.642,-7172.443,512
2.484375,6090.308,-7175.104,512
2.486328,6087.984,-7177.517,512
2.488281,6085.023,-7185.826,512
2.490234,6083.968,-7188.583,512
2.492188,6087.084,-7182.501,512
2.494141,6082.394,-7186.524,512
2.496094,6085.43,-7185.468,512
2.498047,6086.278,-7183.737,512
2.5,6083.027,-7188,512
2.501953,6091.107,-7178.005,512
2.503906,6101.579,-7166.613,512
2.505859,6092.916,-7179.999,512
2.507812,6087.726,-7185.371,512
2.509766,6088.105,-7183.327,512
2.511719,6097.056,-7176.044,512
2.513672,6097.908,-7177.255,512
2.515625,6088.879,-7184.562,512
2.517578,6096.142,-7169.776,512
2.519531,6103.729,-7162.055,512
2.521484,6079.456,-7179.533,512
2.523438,6090.342,-7166.832,512
2.525391,6085.81,-7167.503,512
2.527344,6087.463,-7170.547,512
2.529297,6084.779,-7181.299,512
2.53125,6084.832,-7186.811,512
2.533203,6103.627,-7172.368,512
2.535156,6096.352,-7172.433,512
2.537109,6090.552,-7174.456,512
2.539062,6086.889,-7175.506,512
2.541016,6095.863,-7172.445,512
2.542969,6091.588,-7177.097,512
2.544922,6086.188,-7182.545,512
2.546875,6081.806,-7188.159,512
2.548828,6095.47,-7180.771,512
2.550781,6094.216,-7180.985,512
2.552734,6083.779,-7188.065,512
2.554688,6087.77,-7190.02,512
2.556641,6098.033,-7174.156,512
2.558594,6093.525,-7179.72,512
2.560547,6082.432,-7198.656,512
2.5625,6087.588,-7189.88,512
2.564453,6082.115,-7190.299,512
2.566406,6094.155,-7182.972,512
2.568359,6105.47,-7176.106,512
2.570312,6095.711,-7184.872,512
2.572266,6085.203,-7196.186,512
2.574219,6078.569,-7201.981,512
2.576172,6089.109,-7195.958,512
2.578125,6099.789,-7188.55,512
2.580078,6099.819,-7186.185,512
2.582031,6096.045,-7181.815,512
2.583984,6098.134,-7180.826,512
2.585938,6080.572,-7196.854,512
2.587891,6095.292,-7181.904,512
2.589844,6100.529,-7176.945,512
2.591797,6092.985,-7187.029,512
2.59375,6095.735,-7187.392,512
2.595703,6099.399,-7181.082,512
2.597656,6086.272,-7194.998,512
2.599609,6086.622,-7190.844,512
2.601562,6075.865,-7196.553,512
2.603516,6076.477,-7194.478,512
2.605469,6091.083,-7183.943,512
2.607422,6094.399,-7185.54,512
2.609375,6095.352,-7202.122,512
2.611328,6094.031,-7207.226,512
2.613281,6108.865,-7196.39,512
2.615234,6114.863,-7195.813,512
2.617188,6105.683,-7201.178,512
2.619141,6115.892,-7192.893,512
2.621094,6116.669,-7187.107,512
2.623047,6109.354,-7196.37,512
2.625,6105.589,-7200.85,512
2.626953,6108.872,-7193.023,512
2.628906,6107.028,-7197.794,512
2.630859,6105.041,-7209.584,512
2.632812,6110.823,-7210.64,512
2.634766,6117.78,-7212.873,512
2.636719,6124.539,-7208.028,512
2.638672,6104.644,-7236.206,512
2.640625,6106.132,-7234.598,512
2.642578,6119.384,-7212.008,512
2.644531,6121.487,-7214.594,512
2.646484,6120.266,-7212.444,512
2.648438,6123.917,-7208.953,512
2.650391,6107.014,-7214.944,512
2.652344,6119.052,-7201.018,512
2.654297,6128.035,-7191.272,512
2.65625,6119.382,-7202.371,512
2.658203,6109.959,-7208.653,512
2.660156,6098.443,-7215.141,512
2.662109,6111.188,-7201.386,512
2.664062,6113.22,-7192.787,512
2.666016,6104.06,-7194.791,512
2.667969,6094.223,-7200.962,512
2.669922,6101.267,-7198.286,512
2.671875,6096.902,-7206.037,512
2.673828,6094.614,-7207.014,512
2.675781,6084.774,-7201.218,512
2.677734,6073.082,-7209.14,512
2.679688,6076.22,-7193.228,512
2.681641,6073.87,-7194.66,512
2.683594,6069.045,-7198.699,512
2.685547,6070.015,-7196.798,512
2.6875,6077.937,-7193.842,512
2.689453,6083.47,-7186.624,512
2.691406,6073.022,-7191.364,512
2.693359,6073.774,-7196.98,512
2.695312,6081.771,-7188.908,512
2.697266,6081.694,-7193.654,512
2.699219,6081.168,-7195.402,512
2.701172,6092.208,-7182.765,512
2.703125,6078.463,-7193.239,512
2.705078,6085.487,-7185.797,512
2.707031,6086.604,-7192.6,512
2.708984,6090.413,-7187.763,512
2.710938,6086.812,-7192.272,512
2.712891,6091.374,-7185.256,512
2.714844,6092.253,-7178.357,512
2.716797,6089.096,-7181.671,512
2.71875,6101.52,-7169.203,512
2.720703,6093.733,-7181.745,512
2.722656,6090.663,-7193.129,512
2.724609,6084.754,-7194.057,512
2.726562,6080.347,-7198.479,512
2.728516,6070.773,-7211.763,512
2.730469,6069.273,-7210.243,512
2.732422,6076.071,-7204.647,512
2.734375,6090.584,-7189.43,512
2.736328,6085.972,-7185.381,512
2.738281,6074.528,-7201.161,512
2.740234,6079.51,-7197.123,512
2.742188,6077.493,-7196.046,512
2.744141,6068.723,-7206.19,512
2.746094,6070.652,-7200.354,512
2.748047,6074.432,-7203.271,512
2.75,6081.298,-7203.486,512
2.751953,6085.192,-7193.457,512
2.753906,6082.484,-7195.333,512
2.755859,6085.652,-7191.766,512
2.757812,6080.539,-7200.443,512
2.759766,6087.178,-7196.327,512
2.761719,6094.38,-7195.48,512
2.763672,6083.125,-7209.509,512
2.765625,6088.422,-7193.318,512
2.767578,6088.224,-7191.656,512
2.769531,6076.22,-7205.645,512
2.771484,6096.103,-7191.159,512
2.773438,6099.489,-7187.962,512
2.775391,6103.499,-7194.272,512
2.777344,6099.578,-7195.541,512
2.779297,6101.437,-7192.073,512
2.78125,6112.926,-7189.082,512
2.783203,6128.778,-7179.256,512
2.785156,6119.272,-7186.317,512
2.787109,6111.17,-7210.224,512
2.789062,6147.875,-7206.844,512
2.791016,6161.356,-7230.493,512
2.792969,6169.546,-7269.757,512
2.794922,6192.627,-7296.215,512
2.796875,6225.452,-7321.01,512
2.798828,6269.221,-7330.195,512
2.800781,6282.782,-7362.041,512
2.802734,6292.836,-7381.667,512
2.804688,6298.268,-7392.845,512
2.806641,6288.732,-7405.837,512
2.808594,6272.949,-7421.492,512
2.810547,6256.755,-7417.88,512
2.8125,6220.54,-7408.948,512
2.814453,6213.048,-7375.85,512
2.816406,6206.368,-7346.528,512
2.818359,6200.107,-7321.462,512
2.820312,6189.344,-7292.238,512
2.822266,6161.751,-7257.204,512
2.824219,6107.371,-7246.88,512
2.826172,6103.438,-7218.89,512
2.828125,6090.29,-7212.526,512
2.830078,6096.032,-7198.105,512
2.832031,6092.916,-7203.441,512
2.833984,6078.463,-7210.481,512
2.835938,6077.014,-7199.415,512
2.837891,6081.468,-7202.202,512
2.839844,6089.208,-7200.569,512
2.841797,6088.235,-7202.708,512
2.84375,6088.813,-7194.159,512
2.845703,6103.381,-7179.71,512
2.847656,6096.543,-7179.351,512
2.849609,6087.33,-7186.933,512
2.851562,6092.844,-7191.477,512
2.853516,6099.063,-7193.19,512
2.855469,6093.066,-7194.654,512
2.857422,6097.829,-7191.651,512
2.859375,6095.542,-7204.311,512
2.861328,6097.21,-7202.577,512
2.863281,6101.194,-7201.776,512
2.865234,6098.196,-7196.194,512
2.867188,6091.333,-7197.048,512
2.869141,6091.143,-7194.735,512
2.871094,6102.349,-7188.135,512
2.873047,6099.662,-7194.771,512
2.875,6098.084,-7195.262,512
2.876953,6095.649,-7192.482,512
2.878906,6101.399,-7185.448,512
2.880859,6097.36,-7190.832,512
2.882812,6101.588,-7183.053,512
2.884766,6103.077,-7179.834,512
2.886719,6097.416,-7191.833,512
2.888672,6096.216,-7194.165,512
2.890625,6096.487,-7194.892,512
2.892578,6104.55,-7194.435,512
2.894531,6099.828,-7197.672,512
2.896484,6104.255,-7189.481,512
2.898438,6101.272,-7192.448,512
2.900391,6100.322,-7193.525,512
2.902344,6103.747,-7192.422,512
2.904297,6109.146,-7191.492,512
2.90625,6105.79,-7197.716,512
2.908203,6104.089,-7201.519,512
2.910156,6103.718,-7201.552,512
2.912109,6099,-7210.467,512
2.914062,6101.727,-7205.623,512
2.916016,6104.545,-7195.054,512
2.917969,6094.48,-7209.773,512
2.919922,6090.1,-7207.21,512
2.921875,6103.09,-7194.925,512
2.923828,6081.723,-7215.139,512
2.925781,6081.828,-7213.171,512
2.927734,6093.763,-7202.991,512
2.929688,6104.83,-7194.311,512
2.931641,6100.782,-7202.99,512
2.933594,6103.01,-7195.798,512
2.935547,6101.625,-7195.766,512
2.9375,6101.002,-7202.525,512
2.939453,6109.967,-7197.097,512
2.941406,6103.947,-7196.717,512
2.943359,6106.595,-7194.354,512
2.945312,6102.103,-7198.664,512
2.947266,6110.445,-7188.825,512
2.949219,6111.683,-7185.152,512
2.951172,6111.291,-7185.006,512
2.953125,6115.773,-7180.348,512
2.955078,6116.428,-7180.217,512
2.957031,6114.371,-7183.711,512
2.958984,6102.672,-7187.83,512
2.960938,6095.135,-7190.634,512
2.962891,6102.719,-7191.231,512
2.964844,6103.487,-7190.661,512
2.966797,6099.369,-7200.053,512
2.96875,6100.833,-7203.002,512
2.970703,6103.151,-7194.126,512
2.972656,6106.673,-7193.171,512
2.974609,6099.077,-7202.047,512
2.976562,6101.955,-7199.837,512
2.978516,6103.994,-7200.337,512
2.980469,6105.696,-7192.765,512
2.982422,6097.683,-7203.127,512
2.984375,6099.997,-7202.875,512
2.986328,6109.323,-7193.908,512
2.988281,6108.561,-7198.764,512
2.990234,6115.883,-7194.537,512
2.992188,6112.181,-7201.534,512
2.994141,6109.635,-7202.76,512
2.996094,6112.46,-7200.913,512
2.998047,6112.763,-7201.281,512
3,6122.755,-7191.109,512
3.001953,6110.299,-7204.745,512
3.003906,6109.023,-7211.514,512
3.005859,6113.629,-7209.664,512
3.007812,6109.163,-7215.328,512
3.009766,6112.929,-7216.282,512
3.011719,6112.26,-7217.398,512
3.013672,6113.082,-7222.984,512
3.015625,6128.631,-7207.068,512
3.017578,6137.002,-7205.5,512
3.019531,6138.764,-7204.268,512
3.021484,6133.394,-7203.14,512
3.023438,6118.297,-7229.038,512
3.025391,6128.586,-7226.743,512
3.027344,6140.602,-7218.444,512
3.029297,6136.039,-7223.924,512
3.03125,6134.028,-7220.955,512
3.033203,6132.746,-7225.145,512
3.035156,6144.883,-7216.473,512
3.037109,6128.784,-7234.554,512
3.039062,6138.82,-7238.579,512
3.041016,6159.355,-7220.696,512
3.042969,6165.389,-7219.069,512
3.044922,6167.6,-7217.235,512
3.046875,6156.767,-7231.479,512
3.048828,6166.83,-7224.621,512
3.050781,6154.601,-7233.774,512
3.052734,6144.109,-7251.271,512
3.054688,6162.132,-7237.569,512
3.056641,6159.287,-7243.757,512
3.058594,6154.222,-7252.608,512
3.060547,6167.081,-7234.245,512
3.0625,6161.935,-7240.769,512
3.064453,6167.886,-7236.064,512
3.066406,6185.194,-7224.166,512
3.068359,6177.1,-7233.292,512
3.070312,6175.206,-7230.279,512
3.072266,6179.93,-7229.604,512
3.074219,6170.942,-7240.668,512
3.076172,6177.67,-7234.492,512
3.078125,6178.863,-7239.453,512
3.080078,6181.296,-7244.111,512
3.082031,6188.062,-7238.555,512
3.083984,6187.67,-7235.709,512
3.085938,6187.719,-7237.481,512
3.087891,6191.35,-7235.718,512
3.089844,6192.818,-7236.021,512
3.091797,6203.386,-7227.138,512
3.09375,6185.117,-7245.679,512
3.095703,6193.198,-7239.207,512
3.097656,6190.863,-7239.576,512
3.099609,6183.039,-7237.803,512
3.101562,6184,-7230.312,512
3.103516,6177.762,-7230.074,512
3.105469,6186.194,-7216.61,512
3.107422,6167.141,-7235.896,512
3.109375,6158.132,-7249.354,512
3.111328,6158.712,-7235.195,512
3.113281,6157.732,-7229.203,512
3.115234,6156.088,-7223.018,512
3.117188,6145.508,-7228.175,512
3.119141,6149.937,-7228.09,512
3.121094,6162.479,-7211.368,512
3.123047,6143.901,-7223.745,512
3.125,6134.026,-7226.747,512
3.126953,6133.247,-7226.951,512
3.128906,6134.525,-7222.121,512
3.130859,6112.939,-7235.595,512
3.132812,6115.394,-7228.091,512
3.134766,6125.25,-7215.28,512
3.136719,6122.312,-7211.467,512
3.138672,6111.97,-7218.604,512
3.140625,6102.785,-7223.54,512
3.142578,6112.562,-7217.006,512
3.144531,6107.865,-7218.542,512
3.146484,6114.486,-7210.46,512
3.148438,6108.36,-7214.84,512
3.150391,6100.158,-7213.443,512
3.152344,6095.667,-7212.233,512
3.154297,6098.676,-7206.268,512
3.15625,6088.282,-7215.408,512
3.158203,6086.849,-7217.622,512
3.160156,6091.422,-7213.243,512
3.162109,6083.14,-7220.31,512
3.164062,6089.856,-7213.896,512
3.166016,6099.543,-7204.959,512
3.167969,6088.409,-7212.256,512
3.169922,6082.413,-7212.512,512
3.171875,6084.242,-7214.948,512
3.173828,6080.734,-7220.696,512
3.175781,6092.389,-7213.76,512
3.177734,6084.727,-7225.216,512
3.179688,6087.822,-7218.232,512
3.181641,6086.747,-7220.828,512
3.183594,6076.121,-7225.759,512
3.185547,6079.788,-7221.655,512
3.1875,6086.128,-7215.875,512
3.189453,6090.121,-7209.521,512
3.191406,6086.171,-7218.812,512
3.193359,6069.954,-7231.896,512
3.195312,6070.08,-7230.347,512
3.197266,6086.355,-7218.977,512
3.199219,6095.132,-7209.479,512
3.201172,6084.26,-7211.338,512
3.203125,6083.032,-7210.377,512
3.205078,6078.066,-7209.914,512
3.207031,6086.462,-7206.026,512
3.208984,6081.691,-7214.602,512
3.210938,6074.894,-7220.73,512
3.212891,6080.197,-7220.346,512
3.214844,6076.727,-7221.802,512
3.216797,6077.358,-7217.107,512
3.21875,6083.774,-7206.679,512
3.220703,6088.547,-7194.609,512
3.222656,6080.485,-7203.838,512
3.224609,6080.455,-7209.963,512
3.226562,6087.309,-7205.954,512
3.228516,6084.557,-7214.048,512
3.230469,6073.049,-7223.969,512
3.232422,6083.636,-7209.406,512
3.234375,6069.868,-7224.031,512
3.236328,6080.325,-7212.645,512
3.238281,6079.857,-7216.302,512
3.240234,6087.462,-7209.775,512
3.242188,6089.205,-7210.542,512
3.244141,6080.606,-7216.741,512
3.246094,6083.199,-7209.914,512
3.248047,6093.333,-7202.079,512
3.25,6098.851,-7200.098,512
3.251953,6099.47,-7199.738,512
3.253906,6101.699,-7207.885,512
3.255859,6095.844,-7208.54,512
3.257812,6079.958,-7219.139,512
3.259766,6076.563,-7230.344,512
3.261719,6074.216,-7236.067,512
3.263672,6089.225,-7218.516,512
3.265625,6090.914,-7200.744,512
3.267578,6075.913,-7210.17,512
3.269531,6085.487,-7204.802,512
3.271484,6088.851,-7204.305,512
3.273438,6084.875,-7209.692,512
3.275391,6088.526,-7208.993,512
3.277344,6084.846,-7215.144,512
3.279297,6081.888,-7213.404,512
3.28125,6079.39,-7217.675,512
3.283203,6077.804,-7217.65,512
3.285156,6075.11,-7219.061,512
3.287109,6085.586,-7209.74,512
3.289062,6082.082,-7214.783,512
3.291016,6082.608,-7220.624,512
3.292969,6091.684,-7211.03,512
3.294922,6090.403,-7207.849,512
3.296875,6090.405,-7206.325,512
3.298828,6084.793,-7208.36,512
3.300781,6079.276,-7210.239,512
3.302734,6084.417,-7205.753,512
3.304688,6092.914,-7197.379,512
3.306641,6088.548,-7202.768,512
3.308594,6076.562,-7213.016,512
3.310547,6077.938,-7213.521,512
3.3125,6090.648,-7203.348,512
3.314453,6092.686,-7200.028,512
3.316406,6087.181,-7201.873,512
3.318359,6081.045,-7209.646,512
3.320312,6090.528,-7200.928,512
3.322266,6090.037,-7194.812,512
3.324219,6100.314,-7186.415,512
3.326172,6095.236,-7196.199,512
3.328125,6078.514,-7210.179,512
3.330078,6083.42,-7213.707,512
3.332031,6085.403,-7219.988,512
3.333984,6093.384,-7207.685,512
3.335938,6093.574,-7200.384,512
3.337891,6096.051,-7195.294,512
3.339844,6083.348,-7206.527,512
3.341797,6084.478,-7205.767,512
3.34375,6086.188,-7204.521,512
3.345703,6088.632,-7205.836,512
3.347656,6080.846,-7214.111,512
3.349609,6075.909,-7220.158,512
3.351562,6078.936,-7216.874,512
3.353516,6090.061,-7206.555,512
3.355469,6086.904,-7210.097,512
3.357422,6082.946,-7204.5,512
3.359375,6080.52,-7205.845,512
3.361328,6073.096,-7215.249,512
3.363281,6080.259,-7208.374,512
3.365234,6076.102,-7212.958,512
3.367188,6076.536,-7209.562,512
3.369141,6073.154,-7215.303,512
3.371094,6073.816,-7214.259,512
3.373047,6072.525,-7216.755,512
3.375,6069.953,-7217.242,512
3.376953,6068.146,-7219.346,512
3.378906,6060.012,-7226.94,512
3.380859,6073.384,-7208.75,512
3.382812,6077.555,-7207.32,512
3.384766,6075.78,-7207.212,512
3.386719,6083.271,-7193.887,512
3.388672,6088.094,-7195.657,512
3.390625,6085.042,-7199.855,512
3.392578,6075.754,-7209.62,512
3.394531,6067.635,-7214.508,512
3.396484,6072.034,-7212.749,512
3.398438,6072.143,-7217.232,512
3.400391,6071.628,-7218.144,512
3.402344,6071.55,-7217.084,512
3.404297,6069.803,-7215.867,512
3.40625,6078.084,-7206.998,512
3.408203,6074.46,-7215.103,512
3.410156,6075.124,-7214.835,512
3.412109,6076.736,-7214.084,512
3.414062,6077.389,-7209.069,512
3.416016,6075.052,-7207.928,512
3.417969,6071.553,-7215.793,512
3.419922,6073.241,-7214.542,512
3.421875,6082.854,-7204.03,512
3.423828,6075.908,-7210.383,512
3.425781,6075.469,-7215.143,512
3.427734,6069.512,-7222.591,512
3.429688,6084.214,-7202.119,512
3.431641,6092.812,-7193.248,512
3.433594,6082.701,-7201.898,512
3.435547,6077.522,-7207.522,512
3.4375,6075.111,-7210.691,512
3.439453,6081.586,-7208.277,512
3.441406,6071.572,-7213.38,512
3.443359,6073.13,-7209.323,512
3.445312,6074.7,-7201.693,512
3.447266,6063.992,-7214.986,512
3.449219,6062.254,-7212.04,512
3.451172,6072.234,-7204.318,512
3.453125,6063.739,-7214.025,512
3.455078,6064.766,-7213.548,512
3.457031,6065.063,-7215.342,512
3.458984,6061.923,-7217.266,512
3.460938,6065.713,-7215.63,512
3.462891,6079.133,-7202.766,512
3.464844,6067.145,-7211.341,512
3.466797,6074.129,-7204.677,512
3.46875,6068.986,-7211.986,512
3.470703,6070.803,-7208.111,512
3.472656,6073.419,-7204.122,512
3.474609,6071.857,-7203.705,512
3.476562,6068.289,-7212.071,512
3.478516,6067.175,-7212.38,512
3.480469,6073.841,-7205.734,512
3.482422,6083.221,-7188.548,512
3.484375,6082.13,-7185.126,512
3.486328,6077.12,-7186.769,512
3.488281,6062.549,-7205.866,512
3.490234,6063.03,-7216.636,512
3.492188,6061.15,-7221.172,512
3.494141,6062.032,-7225.499,512
3.496094,6063.881,-7217.401,512
3.498047,6051.873,-7220.824,512
3.5,6047.578,-7223.7,512
3.501953,6057.37,-7213.281,512
3.503906,6051.37,-7218.5,512
3.505859,6047.193,-7221.564,512
3.507812,6041.823,-7226.722,512
3.509766,6041.057,-7230.867,512
3.511719,6045.413,-7227.154,512
3.513672,6052.04,-7218.175,512
3.515625,6053.399,-7214.868,512
3.517578,6056.436,-7211.242,512
3.519531,6047.754,-7222.662,512
3.521484,6039.209,-7228.276,512
3.523438,6048.216,-7218.77,512
3.525391,6054.793,-7218.69,512
3.527344,6040.294,-7233.309,512
3.529297,6039.877,-7229.906,512
3.53125,6044.571,-7232.852,512
3.533203,6056.292,-7220.747,512
3.535156,6048.784,-7223.134,512
3.537109,6033.347,-7232.353,512
3.539062,6043.755,-7227.411,512
3.541016,6054.073,-7224.545,512
3.542969,6041.397,-7236.465,512
3.544922,6042.946,-7237.439,512
3.546875,6039.762,-7238.592,512
3.548828,6038.847,-7236.295,512
3.550781,6022.51,-7241.948,512
3.552734,6030.606,-7240.376,512
3.554688,6036.472,-7243.339,512
3.556641,6032.721,-7251.26,512
3.558594,6029.403,-7250.917,512
3.560547,6024.565,-7256.571,512
3.5625,6021.764,-7263.279,512
3.564453,6024.337,-7250.646,512
3.566406,6032.776,-7236.562,512
3.568359,6026.57,-7244.809,512
3.570312,6013.38,-7256.858,512
3.572266,6019.785,-7248.335,512
3.574219,6026.489,-7245.858,512
3.576172,6030.623,-7244.886,512
3.578125,6034.668,-7244.888,512
3.580078,6043.409,-7233.757,512
3.582031,6044.567,-7230.915,512
3.583984,6032.296,-7243.833,512
3.585938,6031.291,-7248.188,512
3.587891,6035.798,-7246.018,512
3.589844,6040.516,-7242.357,512
3.591797,6016.16,-7264.49,512
3.59375,6015.233,-7266.391,512
3.595703,6043.153,-7241.231,512
3.597656,6038.554,-7247.597,512
3.599609,6047.57,-7241.481,512
3.601562,6046.636,-7244.21,512
3.603516,6047.181,-7249.108,512
3.605469,6038.559,-7251.549,512
3.607422,6034.683,-7260.196,512
3.609375,6035.179,-7265.789,512
3.611328,6037.4,-7258.309,512
3.613281,6049.008,-7252.749,512
3.615234,6046.514,-7256.573,512
3.617188,6049.037,-7257.167,512
3.619141,6053.349,-7256.35,512
3.621094,6062.109,-7250.961,512
3.623047,6064.963,-7261.015,512
3.625,6067.51,-7272.41,512
3.626953,6067.277,-7276.111,512
3.628906,6062.392,-7283.108,512
3.630859,6069.771,-7277.834,512
3.632812,6073.738,-7270.682,512
3.634766,6073.749,-7263.175,512
3.636719,6074.375,-7253.771,512
3.638672,6069.874,-7253.85,512
3.640625,6063.481,-7249.746,512
3.642578,6068.239,-7243.512,512
3.644531,6074.947,-7233.145,512
3.646484,6084.248,-7214.904,512
3.648438,6092.462,-7206.612,512
3.650391,6070.455,-7225.274,512
3.652344,6054.667,-7243.469,512
3.654297,6058.741,-7235.232,512
3.65625,6052.105,-7239.773,512
3.658203,6054.642,-7242.4,512
3.660156,6052.725,-7243.748,512
3.662109,6047.672,-7247.199,512
3.664062,6064.625,-7222.948,512
3.666016,6059.513,-7219.059,512
3.667969,6051.199,-7214.833,512
3.669922,6048.46,-7201.235,512
3.671875,6046.223,-7204.274,512
3.673828,6045.554,-7215.096,512
3.675781,6042.577,-7221.01,512
3.677734,6039.5,-7224.898,512
3.679688,6038.309,-7224.295,512
3.681641,6044.465,-7220.429,512
3.683594,6042.916,-7219.085,512
3.685547,6036.162,-7226.175,512
3.6875,6048.946,-7210.026,512
3.689453,6048.804,-7209.225,512
3.691406,6052.201,-7210.089,512
3.693359,6044.134,-7228.497,512
3.695312,6039.428,-7227.853,512
3.697266,6050.478,-7216.026,512
3.699219,6052.28,-7209.549,512
3.701172,6043.756,-7216.234,512
3.703125,6045.388,-7209.69,512
3.705078,6047.384,-7202.333,512
3.707031,6044.407,-7208.252,512
3.708984,6035.523,-7217.39,512
3.710938,6048.006,-7207.549,512
3.712891,6039.35,-7217.519,512
3.714844,6040.989,-7215.787,512
3.716797,6044.132,-7216.112,512
3.71875,6048.583,-7207.957,512
3.720703,6058.865,-7195.101,512
3.722656,6047.951,-7204.781,512
3.724609,6049.738,-7203.704,512
3.726562,6053.918,-7201.908,512
3.728516,6056.603,-7204.621,512
3.730469,6052.433,-7207.147,512
3.732422,6050.571,-7206.096,512
3.734375,6046.869,-7207.624,512
3.736328,6048.279,-7204.339,512
3.738281,6069.169,-7188.292,512
3.740234,6071.891,-7189.506,512
3.742188,6055.157,-7202.803,512
3.744141,6047.772,-7211.894,512
3.746094,6051.531,-7210.479,512
3.748047,6057.825,-7205.294,512
3.75,6051.214,-7213.548,512
3.751953,6048.053,-7211.764,512
3.753906,6049.444,-7201.742,512
3.755859,6045.5,-7203.901,512
3.757812,6052.818,-7198.759,512
3.759766,6056.635,-7201.323,512
3.761719,6052.062,-7212.159,512
3.763672,6071.798,-7196.378,512
3.765625,6071.026,-7201.491,512
3.767578,6067.498,-7204.918,512
3.769531,6077.692,-7191.812,512
3.771484,6075.435,-7187.463,512
3.773438,6077.489,-7190.496,512
3.775391,6090.156,-7190.013,512
3.777344,6087.778,-7206.566,512
3.779297,6096.615,-7227.216,512
3.78125,6109.015,-7250.973,512
3.783203,6122.885,-7272.009,512
3.785156,6136.479,-7313.747,512
3.787109,6186.367,-7321.031,512
3.789062,6217.686,-7347.334,512
3.791016,6241.718,-7387.5,512
3.792969,6259.249,-7414.727,512
3.794922,6262.878,-7438.756,512
3.796875,6263.457,-7455.964,512
3.798828,6263.665,-7456.468,512
3.800781,6250.766,-7456.609,512
3.802734,6254.301,-7438.58,512
3.804688,6234.412,-7425.92,512
3.806641,6199.926,-7421.4,512
3.808594,6188.072,-7396.305,512
3.810547,6180.947,-7367.393,512
3.8125,6155.257,-7351.935,512
3.814453,6135.921,-7313.461,512
3.816406,6112.99,-7276.858,512
3.818359,6075.93,-7268.285,512
3.820312,6073.941,-7247.231,512
3.822266,6079.05,-7229.26,512
3.824219,6056.265,-7245.587,512
3.826172,6066.252,-7233.181,512
3.828125,6074.103,-7228.467,512
3.830078,6070.314,-7232.937,512
3.832031,6067.052,-7235.02,512
3.833984,6075.033,-7230.291,512
3.835938,6072.136,-7227.898,512
3.837891,6078.581,-7218.93,512
3.839844,6082.376,-7217.155,512
3.841797,6077.778,-7223.431,512
3.84375,6079.411,-7222.395,512
3.845703,6072.107,-7225.532,512
3.847656,6068.785,-7222.971,512
3.849609,6080.719,-7209.117,512
3.851562,6067.486,-7223.392,512
3.853516,6070.078,-7223.2,512
3.855469,6073.188,-7219.419,512
3.857422,6067.864,-7219.484,512
3.859375,6072.303,-7218.344,512
3.861328,6076.145,-7215.065,512
3.863281,6060.062,-7230.659,512
3.865234,6077.665,-7212.899,512
3.867188,6076.541,-7209.288,512
3.869141,6077.458,-7212.175,512
3.871094,6082.526,-7206.689,512
3.873047,6087.069,-7202.9,512
3.875,6071.399,-7213.901,512
3.876953,6069.292,-7212.239,512
3.878906,6080.608,-7207.622,512
3.880859,6079.848,-7206.265,512
3.882812,6071.167,-7211.385,512
3.884766,6086.585,-7198.427,512
3.886719,6071.512,-7213.717,512
3.888672,6065.32,-7216.257,512
3.890625,6077.242,-7212.686,512
3.892578,6082.024,-7204.481,512
3.894531,6078.345,-7208.817,512
3.896484,6070.16,-7217.355,512
3.898438,6084.674,-7199.725,512
3.900391,6085.819,-7203.393,512
3.902344,6084.07,-7207.874,512
3.904297,6077.921,-7212.159,512
3.90625,6080.864,-7206.845,512
3.908203,6064.871,-7223.859,512
3.910156,6075.932,-7218.622,512
3.912109,6076.407,-7214.908,512
3.914062,6086.135,-7204.843,512
3.916016,6084.184,-7202.927,512
3.917969,6071.871,-7215.408,512
3.919922,6079.907,-7208.864,512
3.921875,6079.408,-7212.492,512
3.923828,6082.211,-7205.379,512
3.925781,6074.754,-7209.51,512
3.927734,6081.58,-7206.773,512
3.929688,6087.962,-7198.013,512
3.931641,6077.82,-7215.398,512
3.933594,6079.863,-7210.527,512
3.935547,6075.435,-7209.14,512
3.9375,6082.84,-7202.488,512
3.939453,6074.955,-7206.77,512
3.941406,6068.565,-7215.009,512
3.943359,6074.101,-7214.154,512
3.945312,6066.791,-7220.031,512
3.947266,6070.291,-7214.971,512
3.949219,6067.703,-7220.568,512
3.951172,6076.1,-7214.619,512
3.953125,6084.899,-7203.774,512
3.955078,6071.433,-7213.924,512
3.957031,6073.111,-7217.942,512
3.958984,6074.451,-7216.018,512
3.960938,6059.561,-7228.811,512
3.962891,6071.552,-7220.47,512
3.964844,6071.106,-7220.662,512
3.966797,6080.534,-7213.223,512
3.96875,6086.913,-7205.058,512
3.970703,6074.616,-7219.196,512
3.972656,6074.975,-7220.949,512
3.974609,6081.729,-7214.298,512
3.976562,6073.083,-7226.362,512
3.978516,6076.558,-7228.472,512
3.980469,6089.417,-7216.948,512
3.982422,6083.835,-7218.545,512
3.984375,6087.153,-7216.148,512
3.986328,6085.581,-7217.994,512
3.988281,6090.858,-7215.142,512
3.990234,6075.939,-7233.371,512
3.992188,6086.39,-7219.594,512
3.994141,6081.233,-7229.905,512
3.996094,6094.667,-7221.586,512
3.998047,6091.388,-7222.669,512
4,6087.722,-7221.46,512
4.001953,6090.835,-7222.525,512
4.003906,6085.171,-7228.328,512
4.005859,6097.244,-7225.452,512
4.007812,6079.393,-7243.43,512
4.009766,6084.332,-7238.273,512
4.011719,6093.999,-7233.333,512
4.013672,6097.262,-7230.565,512
4.015625,6095.13,-7232.551,512
4.017578,6095.309,-7233.655,512
4.019531,6108.279,-7224.348,512
4.021484,6109.583,-7229.338,512
4.023438,6114.259,-7225.443,512
4.025391,6105.646,-7237.141,512
4.027344,6110.891,-7233.698,512
4.029297,6111.446,-7233.463,512
4.03125,6114.397,-7233.249,512
4.033203,6116.363,-7233.422,512
4.035156,6117.761,-7235.417,512
4.037109,6117.36,-7236.517,512
4.039062,6128.964,-7232.008,512
4.041016,6130.603,-7232.665,512
4.042969,6122.965,-7244.485,512
4.044922,6127.56,-7241.977,512
4.046875,6133.705,-7230.015,512
4.048828,6123.105,-7243.989,512
4.050781,6133.143,-7236.913,512
4.052734,6131.799,-7237.142,512
4.054688,6137.916,-7233.908,512
4.056641,6131.106,-7244.849,512
4.058594,6128.667,-7250.999,512
4.060547,6138.021,-7245.138,512
4.0625,6138.109,-7247.614,512
4.064453,6152.381,-7239.478,512
4.066406,6149.18,-7244.229,512
4.068359,6150.326,-7245.525,512
4.070312,6159.75,-7234.991,512
4.072266,6161.22,-7238.571,512
4.074219,6152.886,-7248.796,512
4.076172,6144.05,-7253.884,512
4.078125,6145.892,-7255.241,512
4.080078,6143.914,-7261.134,512
4.082031,6157.17,-7246.012,512
4.083984,6153.274,-7247.871,512
4.085938,6149.337,-7251.784,512
4.087891,6158.599,-7242.257,512
4.089844,6151.504,-7244.686,512
4.091797,6144.207,-7249.747,512
4.09375,6141.267,-7248.778,512
4.095703,6151.276,-7236.382,512
4.097656,6163.422,-7223.477,512
4.099609,6150.192,-7239.132,512
4.101562,6148.167,-7239.514,512
4.103516,6138.024,-7240.207,512
4.105469,6140.374,-7230.079,512
4.107422,6142.443,-7224.284,512
4.109375,6135.4,-7227.115,512
4.111328,6116.961,-7240.448,512
4.113281,6123.691,-7232.775,512
4.115234,6127.562,-7225.01,512
4.117188,6129.513,-7213.138,512
4.119141,6120.745,-7221.169,512
4.121094,6107.483,-7228.121,512
4.123047,6099.48,-7229.91,512
4.125,6097.006,-7229.583,512
4.126953,6089.243,-7232.119,512
4.128906,6093.782,-7228.023,512
4.130859,6088.002,-7226.235,512
4.132812,6084.593,-7222.733,512
4.134766,6088.431,-7216.276,512
4.136719,6078.76,-7219.972,512
4.138672,6076.448,-7222.382,512
4.140625,6070.923,-7229.039,512
4.142578,6061.77,-7241.585,512
4.144531,6072.15,-7230.44,512
4.146484,6079.928,-7219.896,512
4.148438,6074.441,-7220.715,512
4.150391,6069.491,-7223.898,512
4.152344,6072.728,-7223.776,512
4.154297,6073.442,-7220.711,512
4.15625,6061.023,-7230.664,512
4.158203,6067.638,-7226.492,512
4.160156,6061.574,-7233.098,512
4.162109,6068.268,-7229.639,512
4.164062,6079.125,-7217.898,512
4.166016,6075.277,-7223.479,512
4.167969,6065.673,-7225.195,512
4.169922,6048.549,-7232.741,512
4.171875,6059.687,-7228.511,512
4.173828,6065.673,-7231.917,512
4.175781,6064.585,-7235.765,512
4.177734,6060.201,-7235.12,512
4.179688,6060.362,-7233.925,512
4.181641,6064.695,-7227.262,512
4.183594,6062.498,-7227.656,512
4.185547,6065.287,-7221.682,512
4.1875,6067.204,-7213.671,512
4.189453,6062.064,-7222.751,512
4.191406,6066.6,-7221.677,512
4.193359,6059.965,-7225.181,512
4.195312,6054.803,-7230.06,512
4.197266,6063.532,-7222.732,512
4.199219,6066.393,-7216.986,512
4.201172,6054.217,-7228.851,512
4.203125,6061.534,-7221.07,512
4.205078,6057.7,-7224.22,512
4.207031,6047.709,-7237.567,512
4.208984,6059.93,-7232.743,512
4.210938,6062.515,-7224.217,512
4.212891,6060.141,-7226.498,512
4.214844,6060.793,-7226.136,512
4.216797,6050.405,-7232.95,512
4.21875,6059.49,-7218.887,512
4.220703,6069.519,-7209.372,512
4.222656,6060.598,-7216.672,512
4.224609,6058.864,-7221.497,512
4.226562,6063.824,-7211.333,512
4.228516,6066.102,-7210.414,512
4.230469,6067.671,-7208.157,512
4.232422,6056.73,-7219.385,512
4.234375,6069.13,-7211.799,512
4.236328,6069.976,-7215.225,512
4.238281,6073.243,-7211.06,512
4.240234,6080.281,-7203.026,512
4.242188,6067.029,-7214.775,512
4.244141,6066.923,-7209.351,512
4.246094,6077.599,-7202.283,512
4.248047,6078.653,-7201.995,512
4.25,6078.468,-7199.822,512
4.251953,6084.591,-7197.092,512
4.253906,6085.346,-7195.04,512
4.255859,6079.407,-7201.417,512
4.257812,6070.769,-7214.512,512
4.259766,6074.156,-7212.834,512
4.261719,6076.192,-7212.578,512
4.263672,6079.383,-7209.491,512
4.265625,6078.592,-7206.648,512
4.267578,6061.903,-7217.861,512
4.269531,6071.287,-7210.15,512
4.271484,6077.562,-7201.892,512
4.273438,6071.607,-7209.211,512
4.275391,6071.636,-7213.03,512
4.277344,6079.726,-7204.891,512
4.279297,6071.324,-7214.479,512
4.28125,6070.955,-7212.23,512
4.283203,6074.829,-7201.596,512
4.285156,6072.399,-7203.428,512
4.287109,6070.6,-7205.713,512
4.289062,6069.985,-7203.064,512
4.291016,6078.435,-7199.66,512
4.292969,6073.841,-7208.783,512
4.294922,6075.131,-7211.727,512
4.296875,6073.672,-7213.233,512
4.298828,6085.973,-7204.118,512
4.300781,6076.384,-7207.408,512
4.302734,6070.939,-7207.454,512
4.304688,6067.703,-7208.906,512
4.306641,6082.287,-7194.247,512
4.308594,6080.876,-7199.381,512
4.310547,6066.381,-7209.294,512
4.3125,6074.849,-7201.194,512
4.314453,6079.09,-7196.69,512
4.316406,6073.978,-7201.485,512
4.318359,6076.048,-7202.389,512
4.320312,6075.226,-7201.981,512
4.322266,6079.096,-7195.105,512
4.324219,6073.962,-7202.415,512
4.326172,6071.66,-7210.263,512
4.328125,6073.53,-7202.029,512
4.330078,6072.564,-7203.977,512
4.332031,6065.306,-7207.741,512
4.333984,6068.063,-7204.024,512
4.335938,6072.059,-7198.784,512
4.337891,6064.083,-7207.894,512
4.339844,6061.395,-7216.606,512
4.341797,6072.299,-7204.603,512
4.34375,6069.774,-7208.105,512
4.345703,6067.686,-7204.965,512
4.347656,6061.929,-7210.495,512
4.349609,6060.105,-7210.454,512
4.351562,6059.357,-7211.058,512
4.353516,6065.899,-7204.97,512
4.355469,6073.562,-7197.987,512
4.357422,6070.388,-7205.22,512
4.359375,6071.606,-7202.142,512
4.361328,6073.157,-7203.2,512
4.363281,6068.684,-7207.635,512
4.365234,6065.035,-7209.696,512
4.367188,6072.841,-7203.993,512
4.369141,6069.778,-7198.118,512
4.371094,6066.631,-7202.028,512
4.373047,6056.25,-7215.985,512
4.375,6065.548,-7204.719,512
4.376953,6060.982,-7210.869,512
4.378906,6055.364,-7214.313,512
4.380859,6064.841,-7209.264,512
4.382812,6071.482,-7207.542,512
4.384766,6067.195,-7206.421,512
4.386719,6070.319,-7196.882,512
4.388672,6070.329,-7194.461,512
4.390625,6053.716,-7207.063,512
4.392578,6053.323,-7206.869,512
4.394531,6049.494,-7215.159,512
4.396484,6055.831,-7207.029,512
4.398438,6065.935,-7198.034,512
4.400391,6049.793,-7210.197,512
4.402344,6054.037,-7208.335,512
4.404297,6065.289,-7193.634,512
4.40625,6063.269,-7199.345,512
4.408203,6058.905,-7206.513,512
4.410156,6063.199,-7206.455,512
4.412109,6062.542,-7208.82,512
4.414062,6059.096,-7209.211,512
4.416016,6058.517,-7207.364,512
4.417969,6056.184,-7212.382,512
4.419922,6065.421,-7199.146,512
4.421875,6050.311,-7211.136,512
4.423828,6051.833,-7211.752,512
4.425781,6062.179,-7204.641,512
4.427734,6049.875,-7218.92,512
4.429688,6060.587,-7203.635,512
4.431641,6047.227,-7213.482,512
4.433594,6045.169,-7215.654,512
4.435547,6048.824,-7213.833,512
4.4375,6060.563,-7201.347,512
4.439453,6054.426,-7208.733,512
4.441406,6051.111,-7213.633,512
4.443359,6058.959,-7208.186,512
4.445312,6044.938,-7215.401,512
4.447266,6052.552,-7204.466,512
4.449219,6056.162,-7206.413,512
4.451172,6057.707,-7208.424,512
4.453125,6048.527,-7217.986,512
4.455078,6046.921,-7218.589,512
4.457031,6050.87,-7216.088,512
4.458984,6052.378,-7207.885,512
4.460938,6045.576,-7218.581,512
4.462891,6045.979,-7225.257,512
4.464844,6053.19,-7215.173,512
4.466797,6061.825,-7209.368,512
4.46875,6057.55,-7208.458,512
4.470703,6057.04,-7210.45,512
4.472656,6062.474,-7209.077,512
4.474609,6067.756,-7199.259,512
4.476562,6064.299,-7208.428,512
4.478516,6066.213,-7204.551,512
4.480469,6059.235,-7208.802,512
4.482422,6067.174,-7201.272,512
4.484375,6062.126,-7205.681,512
4.486328,6059.953,-7209.246,512
4.488281,6062.335,-7207.114,512
4.490234,6055.06,-7215.317,512
4.492188,6060.994,-7215.919,512
4.494141,6057.52,-7220.541,512
4.496094,6069.894,-7205.021,512
4.498047,6066.165,-7205.931,512
4.5,6059.249,-7206.55,512
4.501953,6069.383,-7199.082,512
4.503906,6070.395,-7200.302,512
4.505859,6068.1,-7199.758,512
4.507812,6066.528,-7204.876,512
4.509766,6061.525,-7212.316,512
4.511719,6058.29,-7212.386,512
4.513672,6066.458,-7206.434,512
4.515625,6077.314,-7193.894,512
4.517578,6066.489,-7204.425,512
4.519531,6058.573,-7206.832,512
4.521484,6063.722,-7202.865,512
4.523438,6066.195,-7203.177,512
4.525391,6068.57,-7203.727,512
4.527344,6060.297,-7214.906,512
4.529297,6060.825,-7210.318,512
4.53125,6062.416,-7207.046,512
4.533203,6064.113,-7208.958,512
4.535156,6071.037,-7201.471,512
4.537109,6068.669,-7202.946,512
4.539062,6065.731,-7205.848,512
4.541016,6070.285,-7204.529,512
4.542969,6069.662,-7207.435,512
4.544922,6068.264,-7207.019,512
4.546875,6072.009,-7194.114,512
4.548828,6065.372,-7200.562,512
4.550781,6056.418,-7206.968,512
4.552734,6058.162,-7202.787,512
4.554688,6066.241,-7199.07,512
4.556641,6063.383,-7203.568,512
4.558594,6059.745,-7210.505,512
4.560547,6067.856,-7209.215,512
4.5625,6069.317,-7201.991,512
4.564453,6067.899,-7201.616,512
4.566406,6073.023,-7193.147,512
4.568359,6077.051,-7186.61,512
4.570312,6076.722,-7186.539,512
4.572266,6071.778,-7193.702,512
4.574219,6081.667,-7183.74,512
4.576172,6075.222,-7189.758,512
4.578125,6070.066,-7197.683,512
4.580078,6069.323,-7200.528,512
4.582031,6071.657,-7192.136,512
4.583984,6065.92,-7194.999,512
4.585938,6056.361,-7208.473,512
4.587891,6070.545,-7194.244,512
4.589844,6081.136,-7189.323,512
4.591797,6074.424,-7191.913,512
4.59375,6068.758,-7190.541,512
4.595703,6069.657,-7187.14,512
4.597656,6076.836,-7183.697,512
4.599609,6073.647,-7187.13,512
4.601562,6078.54,-7177.139,512
4.603516,6089.278,-7170.349,512
4.605469,6073.357,-7188.383,512
4.607422,6065.624,-7197.329,512
4.609375,6069.076,-7193.505,512
4.611328,6072.555,-7192.034,512
4.613281,6068.271,-7194.951,512
4.615234,6077.991,-7186.034,512
4.617188,6082.892,-7178.79,512
4.619141,6084.296,-7177.141,512
4.621094,6080.465,-7177.381,512
4.623047,6076.936,-7182.672,512
4.625,6074.135,-7189.985,512
4.626953,6078.442,-7182.063,512
4.628906,6072.974,-7188.328,512
4.630859,6079.291,-7184.463,512
4.632812,6075.495,-7182.391,512
4.634766,6067.051,-7188.229,512
4.636719,6069.865,-7189.801,512
4.638672,6084.298,-7172.944,512
4.640625,6076.701,-7178.474,512
4.642578,6063.303,-7195.118,512
4.644531,6064.149,-7194.632,512
4.646484,6077.023,-7180.183,512
4.648438,6070.242,-7184.61,512
4.650391,6075.634,-7184.062,512
4.652344,6077.751,-7185.959,512
4.654297,6071.888,-7187.74,512
4.65625,6064.383,-7193.803,512
4.658203,6069.896,-7191.219,512
4.660156,6071.196,-7191.494,512
4.662109,6067.998,-7192.253,512
4.664062,6073.167,-7189.193,512
4.666016,6073.181,-7186.366,512
4.667969,6069.678,-7186.687,512
4.669922,6075.846,-7183.882,512
4.671875,6072.302,-7185.796,512
4.673828,6069.123,-7187.77,512
4.675781,6070.476,-7187.861,512
4.677734,6072.327,-7184.706,512
4.679688,6082.065,-7173.187,512
4.681641,6080.968,-7174.285,512
4.683594,6076.42,-7180.531,512
4.685547,6073.003,-7185.304,512
4.6875,6074.8,-7180.626,512
4.689453,6082.542,-7178.549,512
4.691406,6079.229,-7180.344,512
4.693359,6072.228,-7185.078,512
4.695312,6072.16,-7183.004,512
4.697266,6069.879,-7188.101,512
4.699219,6076.064,-7183.419,512
4.701172,6072.256,-7187.255,512
4.703125,6071.284,-7191.328,512
4.705078,6074.941,-7187.292,512
4.707031,6066.709,-7190.614,512
4.708984,6065.947,-7198.132,512
4.710938,6062.961,-7202.775,512
4.712891,6064.701,-7204.037,512
4.714844,6073.471,-7202.372,512
4.716797,6084.497,-7194.495,512
4.71875,6085.331,-7193.541,512
4.720703,6085.599,-7196.356,512
4.722656,6087.108,-7185.678,512
4.724609,6088.92,-7186.947,512
4.726562,6089.154,-7191.909,512
4.728516,6098.805,-7186.033,512
4.730469,6094.849,-7186.842,512
4.732422,6103.19,-7177.78,512
4.734375,6104.784,-7180.139,512
4.736328,6090.152,-7189.148,512
4.738281,6091.834,-7194.571,512
4.740234,6093.327,-7206.459,512
4.742188,6103.194,-7206.306,512
4.744141,6094.613,-7221.648,512
4.746094,6103.863,-7220.097,512
4.748047,6105.739,-7221.414,512
4.75,6102.876,-7213.238,512
4.751953,6102.199,-7214.563,512
4.753906,6098.526,-7207.577,512
4.755859,6092.676,-7204.522,512
4.757812,6090.11,-7202.373,512
4.759766,6084.521,-7203.206,512
4.761719,6088.145,-7198.569,512
4.763672,6081.132,-7208.716,512
4.765625,6079.077,-7201.561,512
4.767578,6091.625,-7182.79,512
4.769531,6096.568,-7178.253,512
4.771484,6087.464,-7185.028,512
4.773438,6078.399,-7197.033,512
4.775391,6082.148,-7190.573,512
4.777344,6078.033,-7197.034,512
4.779297,6076.037,-7193.887,512
4.78125,6071.334,-7185.529,512
4.783203,6065.68,-7183.201,512
4.785156,6059.894,-7181.45,512
4.787109,6057.604,-7178.348,512
4.789062,6069.826,-7171.262,512
4.791016,6050.532,-7194.652,512
4.792969,6048.05,-7196.669,512
4.794922,6049.742,-7195.299,512
4.796875,6040.878,-7208.958,512
4.798828,6047.976,-7200.84,512
4.800781,6046.38,-7198.619,512
4.802734,6047.349,-7198.352,512
4.804688,6056.663,-7186.066,512
4.806641,6042.774,-7196.121,512
4.808594,6049.818,-7190.105,512
4.810547,6039.777,-7205.394,512
4.8125,6042.418,-7199.512,512
4.814453,6037.946,-7207.59,512
4.816406,6041.47,-7201.133,512
4.818359,6048.729,-7195.562,512
4.820312,6047.36,-7196.766,512
4.822266,6042.471,-7201.17,512
4.824219,6041.032,-7203.635,512
4.826172,6035.804,-7208.632,512
4.828125,6040.874,-7202.002,512
4.830078,6037.786,-7206.636,512
4.832031,6036.679,-7208.276,512
4.833984,6043.704,-7199.261,512
4.835938,6044.882,-7206.048,512
4.837891,6047.916,-7202.924,512
4.839844,6036.632,-7212.644,512
4.841797,6040.387,-7207.267,512
4.84375,6031.142,-7212.429,512
4.845703,6015.603,-7234.42,512
4.847656,6033.283,-7215.578,512
4.849609,6033.275,-7213.735,512
4.851562,6040.221,-7207.396,512
4.853516,6039.74,-7203.85,512
4.855469,6023.465,-7217.283,512
4.857422,6031.18,-7212.296,512
4.859375,6033.754,-7206.85,512
4.861328,6028.108,-7213.76,512
4.863281,6041.135,-7198.137,512
4.865234,6047,-7191.383,512
4.867188,6043.44,-7191.224,512
4.869141,6040.345,-7191.459,512
4.871094,6046.609,-7189.997,512
4.873047,6048.26,-7189.981,512
4.875,6032.967,-7203.615,512
4.876953,6034.581,-7206.332,512
4.878906,6036.508,-7204.92,512
4.880859,6035.918,-7209.169,512
4.882812,6027.037,-7213.462,512
4.884766,6032.116,-7208.345,512
4.886719,6040.956,-7204.223,512
4.888672,6036.737,-7210.519,512
4.890625,6043.177,-7206.789,512
4.892578,6057.187,-7194.826,512
4.894531,6067.732,-7184.925,512
4.896484,6061.638,-7184.591,512
4.898438,6060.125,-7186.181,512
4.900391,6062.407,-7190.944,512
4.902344,6066.323,-7199.155,512
4.904297,6076.568,-7216.412,512
4.90625,6086.289,-7236.033,512
4.908203,6095.216,-7254.554,512
4.910156,6113.633,-7284.89,512
4.912109,6151.33,-7308.601,512
4.914062,6171.053,-7338.949,512
4.916016,6205.942,-7357.206,512
4.917969,6236.449,-7387.658,512
4.919922,6253.101,-7410.757,512
4.921875,6259.688,-7424.569,512
4.923828,6254.723,-7443.963,512
4.925781,6247.334,-7455.039,512
4.927734,6247.675,-7447.754,512
4.929688,6238.995,-7438.986,512
4.931641,6214.578,-7423.333,512
4.933594,6189.632,-7412.398,512
4.935547,6179.317,-7377.405,512
4.9375,6173.743,-7337.791,512
4.939453,6151.795,-7308.684,512
4.941406,6120.816,-7283.291,512
4.943359,6091.857,-7250.798,512
4.945312,6070.309,-7234.089,512
4.947266,6055.703,-7225.352,512
4.949219,6072.443,-7198.96,512
4.951172,6068.255,-7191.431,512
4.953125,6063.669,-7188.927,512
4.955078,6064.108,-7189.593,512
4.957031,6057.421,-7193.267,512
4.958984,6054.625,-7195.968,512
4.960938,6069.005,-7186.988,512
4.962891,6067.366,-7186.91,512
4.964844,6067.392,-7181.87,512
4.966797,6066.574,-7181.454,512
4.96875,6060.313,-7188.264,512
4.970703,6065.873,-7181.301,512
4.972656,6067.259,-7179.136,512
4.974609,6056.518,-7189.514,512
4.976562,6058.865,-7184.35,512
4.978516,6054.165,-7188.881,512
4.980469,6052.696,-7187.032,512
4.982422,6062.336,-7175.037,512
4.984375,6062.092,-7178.089,512
4.986328,6062.115,-7175.989,512
4.988281,6068.95,-7169.113,512
4.990234,6069.085,-7177.207,512
4.992188,6071.164,-7178.426,512
4.994141,6072.701,-7178.887,512
4.996094,6062.908,-7185.697,512
4.998047,6077.956,-7171.511,512
5,6072.214,-7169.559,512
5.001953,6064.117,-7172.448,512
5.003906,6062.478,-7180.836,512
5.005859,6064.311,-7179.371,512
5.007812,6063.554,-7187.29,512
5.009766,6064.07,-7187.483,512
5.011719,6061.295,-7187.493,512
5.013672,6056.136,-7193.988,512
5.015625,6063.287,-7187.667,512
5.017578,6072.644,-7178.237,512
5.019531,6073.95,-7175.134,512
5.021484,6072.457,-7176.359,512
5.023438,6063.244,-7187.273,512
5.025391,6064.69,-7186.706,512
5.027344,6066.256,-7184.935,512
5.029297,6069.211,-7187.455,512
5.03125,6069.602,-7187.292,512
5.033203,6074.764,-7178.521,512
5.035156,6073.659,-7181.983,512
5.037109,6075.166,-7180.92,512
5.039062,6075.295,-7182.313,512
5.041016,6070.981,-7191.135,512
5.042969,6074.001,-7191.892,512
5.044922,6080.103,-7183.869,512
5.046875,6078.652,-7183.707,512
5.048828,6074.961,-7185.639,512
5.050781,6074.516,-7183.473,512
5.052734,6083.147,-7185.322,512
5.054688,6074.927,-7199.579,512
5.056641,6074.749,-7199.164,512
5.058594,6076.025,-7201.512,512
5.060547,6075.157,-7198.116,512
5.0625,6080.502,-7189.446,512
5.064453,6081.73,-7187.181,512
5.066406,6080.938,-7185.513,512
5.068359,6077.157,-7194.985,512
5.070312,6086.259,-7186.624,512
5.072266,6072.742,-7198.257,512
5.074219,6063.143,-7210.242,512
5.076172,6078.662,-7198.868,512
5.078125,6063.031,-7214.693,512
5.080078,6069.552,-7205.457,512
5.082031,6071.178,-7195.742,512
5.083984,6071.274,-7193.158,512
5.085938,6078.23,-7182.906,512
5.087891,6072.944,-7196.43,512
5.089844,6076.917,-7191.953,512
5.091797,6064.136,-7202.651,512
5.09375,6060.728,-7210.278,512
5.095703,6075.001,-7194.444,512
5.097656,6077.423,-7190.03,512
5.099609,6075.315,-7188.265,512
5.101562,6068.113,-7196.537,512
5.103516,6065.615,-7201.87,512
5.105469,6075.922,-7192.778,512
5.107422,6078.764,-7195.109,512
5.109375,6072.886,-7202.237,512
5.111328,6071.65,-7203.312,512
5.113281,6072.226,-7199.519,512
5.115234,6077.882,-7191.472,512
5.117188,6075.697,-7193.599,512
5.119141,6071.847,-7198.827,512
5.121094,6081.321,-7195.04,512
5.123047,6089.128,-7190.692,512
5.125,6088.324,-7191.051,512
5.126953,6089.347,-7192.392,512
5.128906,6091.12,-7194.442,512
5.130859,6083.363,-7200.344,512
5.132812,6095.316,-7186.698,512
5.134766,6086.252,-7196.876,512
5.136719,6095.491,-7191.238,512
5.138672,6102.468,-7183.333,512
5.140625,6099.379,-7187.498,512
5.142578,6099.948,-7185.448,512
5.144531,6098.671,-7187.9,512
5.146484,6104.069,-7184.403,512
5.148438,6102.031,-7187.835,512
5.150391,6103.967,-7184.402,512
5.152344,6104.114,-7186.594,512
5.154297,6100.57,-7200.169,512
5.15625,6105.02,-7197.316,512
5.158203,6101.627,-7197.86,512
5.160156,6097.519,-7208.114,512
5.162109,6098.788,-7209.149,512
5.164062,6102.477,-7209.445,512
5.166016,6109.611,-7204.067,512
5.167969,6106.064,-7211.04,512
5.169922,6123.026,-7199.896,512
5.171875,6124.587,-7197.281,512
5.173828,6120.589,-7201.914,512
5.175781,6115.328,-7209.489,512
5.177734,6124.124,-7207.993,512
5.179688,6137.938,-7198.685,512
5.181641,6129.585,-7203.661,512
5.183594,6132.67,-7201.488,512
5.185547,6147.774,-7195.34,512
5.1875,6144.396,-7196.996,512
5.189453,6139.124,-7202.942,512
5.191406,6143.631,-7203.124,512
5.193359,6140.561,-7198.626,512
5.195312,6141.333,-7208.457,512
5.197266,6150.997,-7198.785,512
5.199219,6152.154,-7200.946,512
5.201172,6146.835,-7205.189,512
5.203125,6144.621,-7206.57,512
5.205078,6154.178,-7199.293,512
5.207031,6146.967,-7206.523,512
5.208984,6157.388,-7195.54,512
5.210938,6144.301,-7204.8,512
5.212891,6149.163,-7205.791,512
5.214844,6160.161,-7192.406,512
5.216797,6154.676,-7199.175,512
5.21875,6151.949,-7203.322,512
5.220703,6151.556,-7204.987,512
5.222656,6140.419,-7214.605,512
5.224609,6144.91,-7213.498,512
5.226562,6138.477,-7217.527,512
5.228516,6143.781,-7209.916,512
5.230469,6148.722,-7203.218,512
5.232422,6135.407,-7207.161,512
5.234375,6133.343,-7202.198,512
5.236328,6137.093,-7197.303,512
5.238281,6124.952,-7202.64,512
5.240234,6115.601,-7209.528,512
5.242188,6109.127,-7209.81,512
5.244141,6112.462,-7204.622,512
5.246094,6120.773,-7193.791,512
5.248047,6112.769,-7197.717,512
5.25,6107.55,-7198.016,512
5.251953,6101.231,-7199.667,512
5.253906,6096.969,-7200.067,512
5.255859,6090.174,-7199.606,512
5.257812,6089.485,-7196.584,512
5.259766,6071.864,-7211.996,512
5.261719,6081.437,-7200.45,512
5.263672,6080.056,-7202.539,512
5.265625,6079.81,-7197.259,512
5.267578,6075.748,-7197.002,512
5.269531,6064.65,-7207.352,512
5.271484,6068.15,-7206.699,512
5.273438,6065.074,-7209.497,512
5.275391,6070.037,-7203.522,512
5.277344,6081.63,-7192.572,512
5.279297,6072.358,-7193.401,512
5.28125,6066.377,-7201.549,512
5.283203,6062.526,-7205.142,512
5.285156,6068.065,-7196.235,512
5.287109,6075.333,-7195.647,512
5.289062,6070.053,-7199.238,512
5.291016,6069.903,-7199.535,512
5.292969,6072.772,-7201.174,512
5.294922,6073.91,-7195.66,512
5.296875,6064.044,-7198.258,512
5.298828,6071.301,-7188.188,512
5.300781,6069.029,-7185.902,512
5.302734,6056.998,-7199.852,512
5.304688,6063.996,-7196.322,512
5.306641,6065.158,-7195.04,512
5.308594,6061.087,-7204.029,512
5.310547,6070.518,-7195.936,512
5.3125,6067.301,-7199.401,512
5.314453,6057.16,-7205.393,512
5.316406,6062.806,-7197.716,512
5.318359,6064.732,-7192.183,512
5.320312,6059.157,-7194.091,512
5.322266,6056.684,-7202.621,512
5.324219,6056.881,-7199.496,512
5.326172,6059.669,-7194.141,512
5.328125,6068.3,-7186.98,512
5.330078,6066.169,-7193.481,512
5.332031,6070.358,-7187.274,512
5.333984,6065.846,-7191.033,512
5.335938,6061.981,-7196.072,512
5.337891,6066.045,-7189.241,512
5.339844,6076.851,-7181.745,512
5.341797,6068.222,-7194.29,512
5.34375,6058.596,-7204.637,512
5.345703,6062.575,-7199.678,512
5.347656,6066.788,-7191.229,512
5.349609,6073.599,-7188.382,512
5.351562,6076.945,-7187.203,512
5.353516,6071.773,-7190.202,512
5.355469,6073.417,-7193.583,512
5.357422,6077.604,-7191.833,512
5.359375,6069.801,-7196.798,512
5.361328,6071.583,-7195.741,512
5.363281,6074.985,-7191.886,512
5.365234,6071.188,-7195.104,512
5.367188,6059.641,-7201.944,512
5.369141,6072.611,-7193.498,512
5.371094,6071.882,-7193.239,512
5.373047,6073.665,-7196.891,512
5.375,6071.853,-7195.448,512
5.376953,6064.815,-7197.534,512
5.378906,6060.937,-7200.705,512
5.380859,6072.135,-7189.331,512
5.382812,6078.545,-7187.928,512
5.384766,6068.114,-7198.621,512
5.386719,6064.818,-7192.226,512
5.388672,6071.056,-7187.437,512
5.390625,6077.112,-7188.405,512
5.392578,6076.128,-7189.831,512
5.394531,6066.543,-7199.559,512
5.396484,6063.288,-7201.436,512
5.398438,6063.812,-7203.509,512
5.400391,6074.082,-7196.136,512
5.402344,6076.234,-7195.551,512
5.404297,6072.521,-7195.308,512
5.40625,6068.291,-7193.546,512
5.408203,6066.004,-7197.864,512
5.410156,6046.544,-7212.23,512
5.412109,6053.345,-7202.899,512
5.414062,6048.53,-7209.692,512
5.416016,6057.601,-7197.996,512
5.417969,6058.428,-7194.676,512
5.419922,6051.363,-7200.321,512
5.421875,6054.505,-7201.649,512
5.423828,6051.335,-7208.022,512
5.425781,6061.949,-7202.386,512
5.427734,6055.318,-7203.414,512
5.429688,6056.917,-7207.352,512
5.431641,6058.406,-7202.833,512
5.433594,6062.157,-7198.098,512
5.435547,6067.526,-7192.943,512
5.4375,6072.9,-7187.865,512
5.439453,6067.65,-7197.567,512
5.441406,6060.771,-7205.689,512
5.443359,6049.697,-7213.119,512
5.445312,6050.568,-7209.618,512
5.447266,6054.751,-7207.637,512
5.449219,6057.207,-7206.764,512
5.451172,6056.973,-7210.119,512
5.453125,6065.456,-7207.474,512
5.455078,6070.54,-7202.667,512
5.457031,6057.973,-7212.855,512
5.458984,6056.266,-7207.982,512
5.460938,6071.436,-7197.531,512
5.462891,6061.419,-7201.503,512
5.464844,6056.362,-7201.997,512
5.466797,6061.334,-7199.263,512
5.46875,6061.764,-7196.64,512
5.470703,6069.839,-7188.708,512
5.472656,6058.967,-7198.051,512
5.474609,6041.785,-7212.084,512
5.476562,6040.238,-7213.621,512
5.478516,6061.31,-7192.734,512
5.480469,6040.051,-7214.005,512
5.482422,6050.213,-7205.648,512
5.484375,6062.66,-7192,512
5.486328,6057.793,-7195.238,512
5.488281,6050.993,-7204.007,512
5.490234,6040.131,-7216.78,512
5.492188,6043.899,-7209.75,512
5.494141,6035.621,-7221.753,512
5.496094,6040.483,-7215.965,512
5.498047,6047.312,-7203.486,512
5.5,6055.316,-7195.62,512
5.501953,6047.988,-7210.742,512
5.503906,6052.064,-7210.412,512
5.505859,6057.706,-7200.551,512
5.507812,6059.437,-7202.336,512
5.509766,6060.457,-7203.763,512
5.511719,6056.966,-7204.473,512
5.513672,6053.48,-7199.507,512
5.515625,6043.308,-7203.816,512
5.517578,6046.196,-7205.733,512
5.519531,6046.963,-7200.07,512
5.521484,6050.549,-7201.495,512
5.523438,6053.79,-7204.725,512
5.525391,6058.177,-7196.539,512
5.527344,6049.324,-7206.387,512
5.529297,6049.183,-7201.874,512
5.53125,6052.509,-7202.86,512
5.533203,6053.224,-7205.272,512
5.535156,6054.518,-7201.598,512
5.537109,6049.256,-7205.505,512
5.539062,6051.594,-7203.531,512
5.541016,6057.333,-7198.186,512
5.542969,6054.32,-7205.214,512
5.544922,6056.76,-7205.254,512
5.546875,6054.345,-7202.804,512
5.548828,6042.327,-7208.801,512
5.550781,6058.597,-7190.808,512
5.552734,6050.571,-7198.621,512
5.554688,6055.961,-7196.976,512
5.556641,6064.107,-7192.257,512
5.558594,6051.061,-7203.988,512
5.560547,6061.282,-7191.56,512
5.5625,6071.937,-7185.535,512
5.564453,6056.074,-7196.917,512
5.566406,6027.904,-7209.864,512
5.568359,6039.979,-7199.218,512
5.570312,6040.967,-7199.275,512
5.572266,6046.579,-7198.306,512
5.574219,6038.239,-7213.994,512
5.576172,6042.374,-7207.963,512
5.578125,6046.47,-7198.335,512
5.580078,6051.153,-7197.581,512
5.582031,6050.82,-7195.698,512
5.583984,6041.37,-7205.036,512
5.585938,6047.956,-7191.833,512
5.587891,6044.554,-7193.64,512
5.589844,6042.759,-7202.407,512
5.591797,6041.614,-7204.225,512
5.59375,6038.778,-7210.486,512
5.595703,6047.8,-7198.574,512
5.597656,6050.734,-7196.304,512
5.599609,6048.975,-7194.419,512
5.601562,6047.527,-7191.229,512
5.603516,6057.987,-7184.053,512
5.605469,6045.814,-7190.47,512
5.607422,6037.619,-7193.339,512
5.609375,6051.133,-7193.344,512
5.611328,6049.145,-7193.688,512
5.613281,6047.785,-7200.595,512
5.615234,6048.912,-7201.282,512
5.617188,6043.756,-7197.306,512
5.619141,6045.564,-7198.031,512
5.621094,6044.139,-7199.907,512
5.623047,6046.021,-7197.546,512
5.625,6047.04,-7205.665,512
5.626953,6050.447,-7201.485,512
5.628906,6060.074,-7195.231,512
5.630859,6055.153,-7200.846,512
5.632812,6056.624,-7193.236,512
5.634766,6051.14,-7201.306,512
5.636719,6051.038,-7198.529,512
5.638672,6051.486,-7192.643,512
5.640625,6058.328,-7189.392,512
5.642578,6060.431,-7191.848,512
5.644531,6051.045,-7202.049,512
5.646484,6049.549,-7202.21,512
5.648438,6041.559,-7204.662,512
5.650391,6044.739,-7198.195,512
5.652344,6052.247,-7187.787,512
5.654297,6057.789,-7189.474,512
5.65625,6049.047,-7202.842,512
5.658203,6053.104,-7197.839,512
5.660156,6058.659,-7191.296,512
5.662109,6063.814,-7189.739,512
5.664062,6062.901,-7191.102,512
5.666016,6051.046,-7197.113,512
5.667969,6051.188,-7194.083,512
5.669922,6060.974,-7188.652,512
5.671875,6052.488,-7191.661,512
5.673828,6056.445,-7188.27,512
5.675781,6061.114,-7189.121,512
5.677734,6060.812,-7184.551,512
5.679688,6066.153,-7180.206,512
5.681641,6063.788,-7180.436,512
5.683594,6060.714,-7181.024,512
5.685547,6043.211,-7197.448,512
5.6875,6047.798,-7195.434,512
5.689453,6057.051,-7191.636,512
5.691406,6051.277,-7203.724,512
5.693359,6048.509,-7204.778,512
5.695312,6045.893,-7205.848,512
5.697266,6065.922,-7186.389,512
5.699219,6066.93,-7185.562,512
5.701172,6065.591,-7186.488,512
5.703125,6061.519,-7191.333,512
5.705078,6053.622,-7203.1,512
5.707031,6048.269,-7199.809,512
5.708984,6059.499,-7195.077,512
5.710938,6058.543,-7196.374,512
5.712891,6059.564,-7191.911,512
5.714844,6062.741,-7192.091,512
5.716797,6061.499,-7182.743,512
5.71875,6049.614,-7190.157,512
5.720703,6056.564,-7185.223,512
5.722656,6050.146,-7194.463,512
5.724609,6050.342,-7195.549,512
5.726562,6043.913,-7199.057,512
5.728516,6059.953,-7181.993,512
5.730469,6067.593,-7176.863,512
5.732422,6058.13,-7188.728,512
5.734375,6055.636,-7189.528,512
5.736328,6066.671,-7179.619,512
5.738281,6067.28,-7180.097,512
5.740234,6059.255,-7187.255,512
5.742188,6067.439,-7182.065,512
5.744141,6051.458,-7196.172,512
5.746094,6052.199,-7194.058,512
5.748047,6057.005,-7188.583,512
5.75,6069.412,-7175.389,512
5.751953,6063.51,-7185.953,512
5.753906,6056.173,-7190.103,512
5.755859,6069.985,-7180.161,512
5.757812,6056.349,-7191.224,512
5.759766,6057.959,-7186.023,512
5.761719,6066.246,-7182.334,512
5.763672,6065.915,-7182.37,512
5.765625,6063.77,-7179.655,512
5.767578,6061.515,-7180.323,512
5.769531,6067.54,-7175.191,512
5.771484,6060.641,-7187.872,512
5.773438,6051.917,-7189.684,512
5.775391,6047.748,-7194.863,512
5.777344,6046.626,-7203.058,512
5.779297,6057.849,-7190.199,512
5.78125,6062.443,-7182.644,512
5.783203,6055.954,-7191.32,512
5.785156,6064.082,-7181.928,512
5.787109,6060.663,-7184.041,512
5.789062,6058.832,-7187.024,512
5.791016,6059.712,-7179.659,512
5.792969,6055.208,-7184.702,512
5.794922,6060.225,-7184.788,512
5.796875,6070.797,-7178.93,512
5.798828,6062.895,-7189.316,512
5.800781,6064.766,-7182.793,512
5.802734,6058.673,-7182.399,512
5.804688,6053.444,-7185.877,512
5.806641,6062.417,-7181.967,512
5.808594,6044.84,-7196.851,512
5.810547,6060.724,-7180.171,512
5.8125,6058.999,-7187.151,512
5.814453,6049.109,-7196.976,512
5.816406,6058.967,-7183.416,512
5.818359,6060.256,-7178.02,512
5.820312,6071.828,-7167.422,512
5.822266,6069.709,-7171.876,512
5.824219,6063.501,-7175.136,512
5.826172,6058.25,-7179.668,512
5.828125,6059.357,-7184.102,512
5.830078,6056.344,-7190.604,512
5.832031,6058.887,-7186.794,512
5.833984,6061.756,-7179.868,512
5.835938,6064.438,-7175.429,512
5.837891,6057.267,-7173.273,512
5.839844,6075.772,-7160.953,512
5.841797,6061.808,-7183.299,512
5.84375,6060.742,-7185.698,512
5.845703,6076.842,-7174.897,512
5.847656,6077.311,-7176.638,512
5.849609,6077.19,-7172.257,512
5.851562,6069.694,-7176.904,512
5.853516,6064.839,-7174.072,512
5.855469,6060.304,-7178.923,512
5.857422,6074.456,-7167.844,512
5.859375,6065.216,-7177.222,512
5.861328,6048.95,-7187.876,512
5.863281,6056.855,-7184.272,512
5.865234,6061.858,-7182.042,512
5.867188,6059.504,-7184.924,512
5.869141,6066.528,-7169.383,512
5.871094,6059.063,-7178.228,512
5.873047,6058.517,-7180.976,512
5.875,6070.952,-7175.52,512
5.876953,6079.029,-7172.637,512
5.878906,6081.737,-7166.282,512
5.880859,6052.226,-7181.708,512
5.882812,6069.47,-7168.038,512
5.884766,6070.853,-7167.072,512
5.886719,6064.88,-7169.262,512
5.888672,6060.812,-7172.556,512
5.890625,6056.222,-7172.142,512
5.892578,6067.434,-7168,512
5.894531,6069.088,-7167.186,512
5.896484,6064.235,-7175.741,512
5.898438,6061.051,-7179.929,512
5.900391,6065.457,-7170.245,512
5.902344,6060.789,-7173.759,512
5.904297,6061.057,-7180.067,512
5.90625,6069.265,-7175.678,512
5.908203,6068.445,-7174.574,512
5.910156,6059.751,-7179.958,512
5.912109,6066.632,-7172.165,512
5.914062,6061.563,-7181.989,512
5.916016,6068.719,-7173.822,512
5.917969,6072.028,-7165.131,512
5.919922,6071.925,-7166.775,512
5.921875,6060.809,-7180.149,512
5.923828,6063.93,-7180.617,512
5.925781,6070.845,-7176.234,512
5.927734,6063.989,-7185.61,512
5.929688,6077.689,-7172.203,512
5.931641,6057.692,-7190.828,512
5.933594,6055.215,-7185.476,512
5.935547,6063.89,-7177.339,512
5.9375,6066.141,-7184.983,512
5.939453,6075.753,-7182.849,512
5.941406,6077.595,-7181.076,512
5.943359,6074.847,-7184.46,512
5.945312,6076.181,-7189.63,512
5.947266,6070.852,-7192.556,512
5.949219,6082.471,-7183.178,512
5.951172,6104.231,-7164.217,512
5.953125,6082.572,-7188.176,512
5.955078,6084.704,-7189.761,512
5.957031,6087.423,-7186.108,512
5.958984,6077.908,-7198.019,512
5.960938,6072.942,-7202.824,512
5.962891,6083.429,-7192.181,512
5.964844,6092.637,-7188.48,512
5.966797,6079.921,-7203.753,512
5.96875,6082.734,-7210.45,512
5.970703,6098.515,-7210.008,512
5.972656,6106.877,-7216.296,512
5.974609,6093.354,-7223.631,512
5.976562,6103.097,-7204.208,512
5.978516,6099.833,-7203.894,512
5.980469,6088.293,-7204.671,512
5.982422,6088.18,-7192.353,512
5.984375,6092.517,-7184.966,512
5.986328,6089.031,-7184.35,512
5.988281,6089.198,-7179.171,512
5.990234,6083.43,-7184.564,512
5.992188,6084.932,-7179.438,512
5.994141,6082.283,-7179.776,512
5.996094,6079.822,-7180.626,512
5.998047,6077.552,-7181.229,512
6,6077.642,-7181.497,512
6.001953,6084.348,-7182.246,512
6.003906,6072.262,-7184.002,512
6.005859,6056.861,-7185.856,512
6.007812,6056.641,-7181.146,512
6.009766,6053.934,-7176.947,512
6.011719,6057.118,-7173.131,512
6.013672,6040.263,-7186.411,512
6.015625,6054.524,-7170.987,512
6.017578,6054.47,-7171.188,512
6.019531,6053.532,-7172.827,512
6.021484,6053.975,-7173.721,512
6.023438,6048.646,-7182.013,512
6.025391,6049.578,-7179.782,512
6.027344,6048.07,-7187.195,512
6.029297,6055.75,-7177.25,512
6.03125,6055.128,-7171.439,512
6.033203,6053.325,-7169.981,512
6.035156,6056.086,-7168.591,512
6.037109,6037.825,-7187.646,512
6.039062,6038.144,-7191.703,512
6.041016,6055.343,-7177.431,512
6.042969,6040.78,-7183.983,512
6.044922,6039.37,-7189.509,512
6.046875,6042.081,-7182.871,512
6.048828,6046.223,-7178.997,512
6.050781,6045.488,-7175.254,512
6.052734,6049.562,-7175.054,512
6.054688,6055.345,-7174.789,512
6.056641,6046.645,-7177.422,512
6.058594,6049.699,-7180.199,512
6.060547,6051.067,-7186.163,512
6.0625,6044.986,-7190.679,512
6.064453,6038.947,-7187.557,512
6.066406,6049.727,-7177.121,512
6.068359,6058.414,-7178.821,512
6.070312,6049.452,-7184.414,512
6.072266,6048.947,-7182.154,512
6.074219,6050.172,-7182.941,512
6.076172,6061.205,-7177.192,512
6.078125,6058.116,-7184.04,512
6.080078,6066.36,-7173.163,512
6.082031,6048.245,-7182.937,512
6.083984,6033.181,-7193.22,512
6.085938,6042.541,-7186.745,512
6.087891,6042.995,-7187.952,512
6.089844,6044.002,-7186.415,512
6.091797,6039.795,-7188.845,512
6.09375,6047.342,-7185.903,512
6.095703,6054.723,-7183.256,512
6.097656,6043.849,-7195.222,512
6.099609,6052.082,-7183.862,512
6.101562,6058.495,-7177.552,512
6.103516,6065.649,-7171.641,512
6.105469,6071.728,-7169.687,512
6.107422,6060.66,-7181.878,512
6.109375,6070.671,-7178.22,512
6.111328,6063.562,-7183.916,512
6.113281,6067.856,-7181.112,512
6.115234,6075.468,-7176.179,512
6.117188,6072.975,-7175.932,512
6.119141,6077.347,-7171.853,512
6.121094,6082.261,-7166.315,512
6.123047,6075.625,-7166.988,512
6.125,6073.706,-7175.855,512
6.126953,6072.626,-7182.554,512
6.128906,6074.989,-7199.711,512
6.130859,6098.018,-7202.162,512
6.132812,6107.353,-7226.107,512
6.134766,6121.085,-7260.156,512
6.136719,6162.351,-7282.893,512
6.138672,6192.43,-7315.528,512
6.140625,6219.462,-7337.135,512
6.142578,6243.386,-7376.906,512
6.144531,6275.438,-7389.346,512
6.146484,6268.823,-7415.549,512
6.148438,6257.48,-7440.865,512
6.150391,6269.257,-7426.583,512
6.152344,6249.776,-7436.8,512
6.154297,6254.444,-7419.149,512
6.15625,6232.329,-7404.748,512
6.158203,6201.563,-7392.567,512
6.160156,6186.712,-7369.33,512
6.162109,6171.859,-7348.132,512
6.164062,6168.655,-7304.224,512
6.166016,6141.979,-7274.897,512
6.167969,6099.192,-7245.393,512
6.169922,6077.17,-7226.615,512
6.171875,6058.029,-7223.609,512
6.173828,6065.99,-7200.572,512
6.175781,6060.515,-7201.502,512
6.177734,6067.951,-7198.794,512
6.179688,6069.853,-7198.344,512
6.181641,6069.528,-7171.417,512
6.183594,6084.171,-7158.395,512
6.185547,6074.082,-7160.812,512
6.1875,6072.604,-7173.433,512
6.189453,6071.594,-7180.494,512
6.191406,6082.641,-7194.976,512
6.193359,6080.388,-7180.571,512
6.195312,6073.361,-7161.508,512
6.197266,6083.421,-7163.588,512
6.199219,6079.089,-7179.359,512
6.201172,6079.076,-7174.617,512
6.203125,6082.169,-7163.99,512
6.205078,6073.586,-7166.308,512
6.207031,6081.636,-7159.4,512
6.208984,6083.011,-7173.688,512
6.210938,6071.738,-7173.194,512
6.212891,6068.246,-7169.202,512
6.214844,6083.875,-7180.986,512
6.216797,6069.521,-7173.395,512
6.21875,6071.664,-7161.31,512
6.220703,6065.605,-7167.399,512
6.222656,6061.381,-7175.538,512
6.224609,6071.276,-7168.252,512
6.226562,6072.348,-7172.505,512
6.228516,6067.652,-7197.103,512
6.230469,6071.596,-7167.061,512
6.232422,6071.177,-7176.606,512
6.234375,6082.936,-7166.144,512
6.236328,6076.399,-7168.526,512
6.238281,6070.964,-7174.936,512
6.240234,6069.454,-7160.258,512
6.242188,6079.135,-7182.841,512
6.244141,6074.973,-7173.087,512
6.246094,6073.21,-7171.762,512
6.248047,6080.964,-7177.485,512
6.25,6072.82,-7163.204,512
6.251953,6067.359,-7168.415,512
6.253906,6077.377,-7158.853,512
6.255859,6082.84,-7152.339,512
6.257812,6070.254,-7165.958,512
6.259766,6071.718,-7160.461,512
6.261719,6074.037,-7158.275,512
6.263672,6077.735,-7161.868,512
6.265625,6083.018,-7156.98,512
6.267578,6080.211,-7159.637,512
6.269531,6078.298,-7155.768,512
6.271484,6078.329,-7158.274,512
6.273438,6070.631,-7170.994,512
6.275391,6078.176,-7163.255,512
6.277344,6071.219,-7164.891,512
6.279297,6068.21,-7172.958,512
6.28125,6077.67,-7158.855,512
6.283203,6088.747,-7162.633,512
6.285156,6082.221,-7173.854,512
6.287109,6086.164,-7152.144,512
6.289062,6072.477,-7167.313,512
6.291016,6067.771,-7174.586,512
6.292969,6066.107,-7177.723,512
6.294922,6068.657,-7171.546,512
6.296875,6085.854,-7162.131,512
6.298828,6069.321,-7172.678,512
6.300781,6065.05,-7181.754,512
6.302734,6078.787,-7162.372,512
6.304688,6065.888,-7182.159,512
6.306641,6079.579,-7175.771,512
6.308594,6076.148,-7171.054,512
6.310547,6068.188,-7183.23,512
6.3125,6074.293,-7171.766,512
6.314453,6074.689,-7170.881,512
6.316406,6063.871,-7176.435,512
6.318359,6077.029,-7167.908,512
6.320312,6076.304,-7173.529,512
6.322266,6072.489,-7182.529,512
6.324219,6078.438,-7162.166,512
6.326172,6078.387,-7170.513,512
6.328125,6081.363,-7171.67,512
6.330078,6088.907,-7162.882,512
6.332031,6085.194,-7167.339,512
6.333984,6089.72,-7162.451,512
6.335938,6090.167,-7159.184,512
6.337891,6096.254,-7157.177,512
6.339844,6098.188,-7159.961,512
6.341797,6093.742,-7174.518,512
6.34375,6090.906,-7178.328,512
6.345703,6099.274,-7167.986,512
6.347656,6081.588,-7180.272,512
6.349609,6098.348,-7163.373,512
6.351562,6096.316,-7167.975,512
6.353516,6104.491,-7169.798,512
6.355469,6112.617,-7167.379,512
6.357422,6113.161,-7155.165,512
6.359375,6108.363,-7176.985,512
6.361328,6104.214,-7176.232,512
6.363281,6109.508,-7166.934,512
6.365234,6117.126,-7164.033,512
6.367188,6110.462,-7167.031,512
6.369141,6120.33,-7161.771,512
6.371094,6114.089,-7165.081,512
6.373047,6119.081,-7162.158,512
6.375,6114.688,-7166.718,512
6.376953,6114.55,-7168.167,512
6.378906,6114.398,-7176.344,512
6.380859,6115.728,-7175.717,512
6.382812,6126.337,-7169.993,512
6.384766,6122.063,-7175.717,512
6.386719,6125.325,-7178.533,512
6.388672,6149.68,-7171.246,512
6.390625,6131.433,-7181.034,512
6.392578,6117.715,-7185.842,512
6.394531,6128.411,-7192.982,512
6.396484,6132.192,-7173.632,512
6.398438,6130.253,-7178.995,512
6.400391,6138.065,-7191.894,512
6.402344,6144.389,-7181.049,512
6.404297,6137.09,-7187.908,512
6.40625,6141.396,-7193.085,512
6.408203,6143.788,-7192.907,512
6.410156,6143.604,-7199.565,512
6.412109,6157.524,-7195.188,512
6.414062,6151.534,-7192.076,512
6.416016,6163.995,-7183.768,512
6.417969,6166.654,-7182.979,512
6.419922,6166.704,-7186.337,512
6.421875,6172.274,-7197.825,512
6.423828,6160.189,-7194.38,512
6.425781,6161.972,-7203.765,512
6.427734,6158.693,-7203.988,512
6.429688,6170.385,-7191.064,512
6.431641,6168.993,-7203.129,512
6.433594,6170.805,-7186.947,512
6.435547,6158.019,-7200.342,512
6.4375,6160.943,-7202.189,512
6.439453,6166.677,-7207.595,512
6.441406,6168.966,-7191.667,512
6.443359,6168.822,-7194.381,512
6.445312,6175.535,-7196.085,512
6.447266,6170.585,-7203.457,512
6.449219,6166.489,-7201.179,512
6.451172,6164.96,-7194.949,512
6.453125,6162.094,-7194.479,512
6.455078,6157.985,-7202.267,512
6.457031,6149.339,-7207.318,512
6.458984,6155.149,-7193.54,512
6.460938,6151.056,-7193.03,512
6.462891,6149.656,-7190.945,512
6.464844,6154.854,-7179.086,512
6.466797,6152.356,-7178.278,512
6.46875,6142.958,-7179.018,512
6.470703,6133.559,-7183.952,512
6.472656,6121.939,-7187.179,512
6.474609,6125.491,-7178.021,512
6.476562,6121.967,-7180.661,512
6.478516,6127.238,-7171.12,512
6.480469,6130.543,-7164.168,512
6.482422,6123.673,-7158.375,512
6.484375,6105.362,-7170.655,512
6.486328,6102.881,-7173.32,512
6.488281,6111.631,-7162.084,512
6.490234,6095.034,-7174.759,512
6.492188,6097.536,-7167.968,512
6.494141,6106.288,-7156.112,512
6.496094,6095.862,-7160.82,512
6.498047,6096.314,-7160.323,512
6.5,6087.595,-7160.886,512
6.501953,6082.804,-7162.597,512
6.503906,6089.812,-7158.946,512
6.505859,6082.956,-7168.008,512
6.507812,6078.648,-7170.126,512
6.509766,6090.486,-7160.598,512
6.511719,6088.175,-7159.547,512
6.513672,6085.192,-7159.346,512
6.515625,6085.023,-7159.268,512
6.517578,6094.566,-7151.508,512
6.519531,6095.585,-7150.407,512
6.521484,6088.971,-7154.328,512
6.523438,6082.582,-7160.549,512
6.525391,6091.487,-7151.701,512
6.527344,6084.171,-7159.541,512
6.529297,6081.242,-7160.343,512
6.53125,6077.755,-7162.929,512
6.533203,6072.19,-7165.812,512
6.535156,6078.474,-7157.164,512
6.537109,6069.724,-7165.425,512
6.539062,6076.825,-7157.902,512
6.541016,6082.74,-7156.277,512
6.542969,6064.697,-7175.093,512
6.544922,6063.446,-7176.369,512
6.546875,6073.835,-7168.123,512
6.548828,6069.159,-7172.291,512
6.550781,6067.328,-7171.938,512
6.552734,6073.558,-7165.905,512
6.554688,6066.846,-7168.765,512
6.556641,6073.361,-7168.835,512
6.558594,6071.896,-7163.252,512
6.560547,6079.873,-7151.459,512
6.5625,6078.333,-7159.562,512
6.564453,6067.572,-7163.549,512
6.566406,6072.311,-7156.207,512
6.568359,6072.12,-7164.151,512
6.570312,6075.479,-7161.155,512
6.572266,6072.671,-7161.83,512
6.574219,6069.932,-7165.682,512
6.576172,6071.632,-7168.84,512
6.578125,6073.945,-7166.722,512
6.580078,6078.395,-7165.54,512
6.582031,6079.618,-7165.648,512
6.583984,6069.31,-7167.401,512
6.585938,6074.709,-7158.484,512
6.587891,6066.078,-7175.899,512
6.589844,6077.04,-7165.294,512
6.591797,6074.565,-7158.882,512
6.59375,6084.488,-7161.345,512
6.595703,6076.927,-7169.646,512
6.597656,6077.005,-7174.072,512
6.599609,6078.212,-7174.804,512
6.601562,6075.197,-7177.389,512
6.603516,6080.495,-7174.331,512
6.605469,6085.793,-7169.264,512
6.607422,6083.39,-7169.629,512
6.609375,6066.025,-7183.981,512
6.611328,6077.506,-7176.392,512
6.613281,6072.992,-7175.425,512
6.615234,6067.263,-7174.327,512
6.617188,6082.209,-7162.039,512
6.619141,6079.3,-7167.502,512
6.621094,6080.789,-7166.538,512
6.623047,6073.315,-7176.164,512
6.625,6073.97,-7176.993,512
6.626953,6072.957,-7180.974,512
6.628906,6072.194,-7183.709,512
6.630859,6074.081,-7177.996,512
6.632812,6071.057,-7176.383,512
6.634766,6080.911,-7164.105,512
6.636719,6075.22,-7175.402,512
6.638672,6068.946,-7185.514,512
6.640625,6068.273,-7184.751,512
6.642578,6055.301,-7197.127,512
6.644531,6075.56,-7182.521,512
6.646484,6076.344,-7181.89,512
6.648438,6084.136,-7171.455,512
6.650391,6073.231,-7181.678,512
6.652344,6079.759,-7173.059,512
6.654297,6083.344,-7165.635,512
6.65625,6073.604,-7181.752,512
6.658203,6076.581,-7176.32,512
6.660156,6072.367,-7179.997,512
6.662109,6074.027,-7176.536,512
6.664062,6080.825,-7165.549,512
6.666016,6076.664,-7167.234,512
6.667969,6074.54,-7173.045,512
6.669922,6064.348,-7187.343,512
6.671875,6071.375,-7180.337,512
6.673828,6070.745,-7196.562,512
6.675781,6075.304,-7191.952,512
6.677734,6057.673,-7197.939,512
6.679688,6059.365,-7188.174,512
6.681641,6077.542,-7175.068,512
6.683594,6080.736,-7177.083,512
6.685547,6074.749,-7180.703,512
6.6875,6081.57,-7178.24,512
6.689453,6072.627,-7181.335,512
6.691406,6062.741,-7189.575,512
6.693359,6061.278,-7191.477,512
6.695312,6065.881,-7185.824,512
6.697266,6065.929,-7186.885,512
6.699219,6077.304,-7170.115,512
6.701172,6055.048,-7190.536,512
6.703125,6071.045,-7179.488,512
6.705078,6075.344,-7179.591,512
6.707031,6072.192,-7182.083,512
6.708984,6071.364,-7189.382,512
6.710938,6066.016,-7189.663,512
6.712891,6061.796,-7190.934,512
6.714844,6068.047,-7184.943,512
6.716797,6077.617,-7170.119,512
6.71875,6068.512,-7180.485,512
6.720703,6063.364,-7185.621,512
6.722656,6066.856,-7180.44,512
6.724609,6066.806,-7181.602,512
6.726562,6070.156,-7185.122,512
6.728516,6067.065,-7191.528,512
6.730469,6068.524,-7177.135,512
6.732422,6077.167,-7166.352,512
6.734375,6069.959,-7172.928,512
6.736328,6067.547,-7170.732,512
6.738281,6065.191,-7173.244,512
6.740234,6057.087,-7181.542,512
6.742188,6075.055,-7169.468,512
6.744141,6061.816,-7184.666,512
6.746094,6061.387,-7198.348,512
6.748047,6068.645,-7188.092,512
6.75,6069.798,-7179.683,512
6.751953,6070.938,-7173.947,512
6.753906,6063.924,-7177.851,512
6.755859,6063.278,-7184.722,512
6.757812,6069.5,-7181.135,512
6.759766,6068.483,-7181.172,512
6.761719,6073.082,-7177.724,512
6.763672,6072.88,-7177.426,512
6.765625,6058.628,-7184.562,512
6.767578,6057.61,-7186.672,512
6.769531,6059.369,-7188.609,512
6.771484,6064.024,-7184.302,512
6.773438,6060.984,-7189.558,512
6.775391,6069.721,-7180.471,512
6.777344,6068.902,-7184.034,512
6.779297,6061.878,-7189.427,512
6.78125,6063.154,-7179.309,512
6.783203,6068.75,-7182.293,512
6.785156,6067.065,-7186.08,512
6.787109,6045.069,-7194.083,512
6.789062,6064.003,-7178.305,512
6.791016,6064.839,-7175.804,512
6.792969,6060.509,-7186.526,512
6.794922,6063.23,-7188.209,512
6.796875,6064.242,-7185.778,512
6.798828,6072.496,-7179.659,512
6.800781,6063.219,-7187.322,512
6.802734,6052.247,-7190.721,512
6.804688,6059.141,-7184.17,512
6.806641,6061.399,-7183.228,512
6.808594,6063.581,-7191.007,512
6.810547,6063.851,-7191.292,512
6.8125,6055.163,-7194.056,512
6.814453,6074.022,-7173.346,512
6.816406,6075.524,-7174.915,512
6.818359,6061.661,-7179.175,512
6.820312,6059.954,-7174.928,512
6.822266,6052.56,-7193.453,512
6.824219,6054.619,-7194.52,512
6.826172,6058.191,-7191.487,512
6.828125,6066.322,-7184.665,512
6.830078,6067.512,-7179.302,512
6.832031,6071.361,-7178.177,512
6.833984,6063.253,-7178.194,512
6.835938,6057.55,-7183.344,512
6.837891,6058.148,-7183.525,512
6.839844,6060.001,-7186.604,512
6.841797,6063.184,-7188.582,512
6.84375,6052.635,-7200.495,512
6.845703,6052.667,-7196.88,512
6.847656,6052.621,-7195.536,512
6.849609,6059.564,-7188.719,512
6.851562,6064.748,-7180.423,512
6.853516,6063.95,-7178.943,512
6.855469,6065.99,-7182.34,512
6.857422,6061.341,-7186.829,512
6.859375,6057.178,-7189.2,512
6.861328,6063.199,-7183.346,512
6.863281,6074.927,-7175.463,512
6.865234,6066.565,-7188.001,512
6.867188,6073.317,-7163.788,512
6.869141,6073.158,-7162.866,512
6.871094,6060.87,-7183.358,512
6.873047,6059.16,-7178.388,512
6.875,6067.93,-7180.281,512
6.876953,6067.514,-7180.117,512
6.878906,6061.051,-7189.737,512
6.880859,6058.092,-7192.76,512
6.882812,6065.591,-7175.959,512
6.884766,6062.806,-7175.741,512
6.886719,6063.817,-7175.171,512
6.888672,6050.784,-7182.599,512
6.890625,6057.271,-7179.377,512
6.892578,6043.213,-7202.579,512
6.894531,6058.781,-7186.752,512
6.896484,6052.962,-7185.707,512
6.898438,6057.699,-7178.353,512
6.900391,6074.095,-7166.777,512
6.902344,6065.921,-7176.845,512
6.904297,6043.498,-7188.706,512
6.90625,6043.802,-7186.645,512
6.908203,6047.231,-7191.546,512
6.910156,6053.84,-7186.249,512
6.912109,6050.395,-7186.727,512
6.914062,6047.926,-7190.732,512
6.916016,6054.114,-7182.483,512
6.917969,6058.386,-7176.319,512
6.919922,6061.267,-7171.321,512
6.921875,6044.774,-7189.134,512
6.923828,6051.568,-7184.305,512
6.925781,6059.974,-7182.15,512
6.927734,6066.09,-7181.228,512
6.929688,6061.5,-7182.196,512
6.931641,6062.13,-7180.876,512
6.933594,6062.393,-7176.458,512
6.935547,6056.851,-7183.062,512
6.9375,6064.17,-7176.106,512
6.939453,6061.983,-7176.392,512
6.941406,6054.265,-7182.723,512
6.943359,6042.346,-7195.749,512
6.945312,6059.956,-7174.874,512
6.947266,6054.783,-7178.494,512
6.949219,6051.658,-7184.164,512
6.951172,6058.77,-7182.788,512
6.953125,6059.13,-7177.976,512
6.955078,6075.576,-7161.34,512
6.957031,6075.552,-7160.866,512
6.958984,6054.502,-7185.636,512
6.960938,6058.575,-7182.958,512
6.962891,6068.987,-7174.171,512
6.964844,6073.718,-7172.256,512
6.966797,6048.637,-7181.093,512
6.96875,6054.323,-7181.05,512
6.970703,6060.381,-7177.678,512
6.972656,6059.155,-7176.238,512
6.974609,6066.87,-7167.573,512
6.976562,6064.283,-7173.365,512
6.978516,6057.702,-7181.481,512
6.980469,6071.188,-7164.411,512
6.982422,6060.999,-7173.812,512
6.984375,6058.103,-7174.494,512
6.986328,6069.396,-7164.678,512
6.988281,6071.124,-7170.757,512
6.990234,6065.775,-7176.648,512
6.992188,6065.885,-7171.112,512
6.994141,6066.61,-7182.917,512
6.996094,6072.75,-7163.928,512
6.998047,6056.175,-7181.383,512
7,6065.971,-7179.83,512
7.001953,6076.354,-7169.318,512
7.003906,6070.965,-7179.78,512
7.005859,6072.39,-7189.712,512
7.007812,6070.097,-7180,512
7.009766,6070.662,-7179.751,512
7.011719,6073.378,-7178.69,512
7.013672,6074.793,-7177.325,512
7.015625,6067.843,-7184.962,512
7.017578,6076.525,-7172.562,512
7.019531,6068.45,-7180.821,512
7.021484,6062.395,-7181.301,512
7.023438,6065.744,-7181.227,512
7.025391,6065.477,-7182.561,512
7.027344,6067.271,-7181.544,512
7.029297,6068.997,-7180.616,512
7.03125,6072.548,-7177.934,512
7.033203,6062.075,-7179.921,512
7.035156,6070.913,-7169.966,512
7.037109,6071.051,-7169.233,512
7.039062,6069.537,-7177.38,512
7.041016,6057.518,-7186.544,512
7.042969,6048.374,-7196.585,512
7.044922,6058.928,-7177.236,512
7.046875,6068.77,-7173.598,512
7.048828,6067.691,-7179.993,512
7.050781,6069.751,-7182.352,512
7.052734,6065.057,-7184.37,512
7.054688,6061.677,-7178.002,512
7.056641,6068.163,-7182.763,512
7.058594,6052.895,-7198.622,512
7.060547,6048.688,-7201.056,512
7.0625,6060.857,-7190.584,512
7.064453,6073.656,-7175.505,512
7.066406,6057.857,-7185.694,512
7.068359,6052.868,-7194.29,512
7.070312,6052.885,-7189.74,512
7.072266,6063.577,-7180.998,512
7.074219,6062.47,-7178.473,512
7.076172,6058.212,-7179.25,512
7.078125,6067.518,-7173.369,512
7.080078,6077.92,-7167.388,512
7.082031,6079.141,-7167.845,512
7.083984,6079.689,-7163.441,512
7.085938,6063.733,-7176.34,512
7.087891,6063.963,-7190.139,512
7.089844,6074.658,-7168.357,512
7.091797,6070.593,-7168.161,512
7.09375,6064.509,-7179.217,512
7.095703,6075.722,-7166.343,512
7.097656,6076.953,-7171.652,512
7.099609,6069.182,-7175.703,512
7.101562,6070.22,-7189.031,512
7.103516,6068.395,-7179.628,512
7.105469,6069.703,-7169.539,512
7.107422,6073.139,-7172.872,512
7.109375,6062.357,-7177.362,512
7.111328,6067.475,-7173.734,512
7.113281,6073.792,-7168.701,512
7.115234,6075.842,-7164.899,512
7.117188,6073.666,-7171.042,512
7.119141,6077.289,-7167.614,512
7.121094,6082.207,-7166.362,512
7.123047,6073.609,-7170.185,512
7.125,6077.371,-7168.768,512
7.126953,6078.142,-7171.225,512
7.128906,6079.54,-7176.846,512
7.130859,6078.392,-7180.194,512
7.132812,6070.645,-7181.79,512
7.134766,6075.717,-7176.779,512
7.136719,6085.103,-7163.13,512
7.138672,6079.128,-7171.19,512
7.140625,6079.287,-7178.037,512
7.142578,6099.12,-7166.45,512
7.144531,6099.081,-7177.57,512
7.146484,6098.488,-7174.083,512
7.148438,6093.897,-7176.543,512
7.150391,6093.015,-7176.364,512
7.152344,6100.846,-7161.792,512
7.154297,6089.41,-7178.632,512
7.15625,6093.831,-7184.076,512
7.158203,6096.646,-7181.889,512
7.160156,6093.184,-7184.738,512
7.162109,6094.643,-7193.993,512
7.164062,6084.154,-7199.744,512
7.166016,6089.044,-7200.486,512
7.167969,6089.118,-7207.073,512
7.169922,6096.653,-7207.869,512
7.171875,6103.721,-7221.36,512
7.173828,6100.444,-7222.914,512
7.175781,6100.878,-7224.967,512
7.177734,6108.785,-7217.414,512
7.179688,6112.661,-7209.68,512
7.181641,6109.086,-7211.464,512
7.183594,6102.724,-7191.082,512
7.185547,6111.787,-7179.207,512
7.1875,6106.552,-7189.536,512
7.189453,6099.84,-7194.812,512
7.191406,6088.474,-7210.096,512
7.193359,6099.141,-7208.224,512
7.195312,6092.982,-7187.51,512
7.197266,6092.436,-7189.965,512
7.199219,6098.753,-7193.181,512
7.201172,6093.091,-7190.508,512
7.203125,6100.943,-7183.152,512
7.205078,6082.458,-7190.539,512
7.207031,6080.66,-7181.473,512
7.208984,6075.825,-7189.028,512
7.210938,6055.685,-7196.995,512
7.212891,6056.511,-7187.426,512
7.214844,6065.453,-7173.705,512
7.216797,6070.18,-7168.803,512
7.21875,6073.797,-7166.325,512
7.220703,6067.362,-7173.532,512
7.222656,6081.374,-7168.148,512
7.224609,6068.249,-7181.915,512
7.226562,6065.854,-7181.069,512
7.228516,6073.799,-7175.739,512
7.230469,6062.524,-7187.874,512
7.232422,6077.94,-7169.346,512
7.234375,6088.751,-7164.225,512
7.236328,6082.904,-7160.015,512
7.238281,6065.378,-7176.368,512
7.240234,6051.954,-7190.498,512
7.242188,6056.01,-7184.292,512
7.244141,6067.166,-7174.649,512
7.246094,6066.863,-7173.619,512
7.248047,6065.347,-7168.337,512
7.25,6065.135,-7172.664,512
7.251953,6065.143,-7177.296,512
7.253906,6058.164,-7183.259,512
7.255859,6056.67,-7186.485,512
7.257812,6054.831,-7179.477,512
7.259766,6062.71,-7186.903,512
7.261719,6061.326,-7187.645,512
7.263672,6053.397,-7180.352,512
7.265625,6057.001,-7176.428,512
7.267578,6067.596,-7165.984,512
7.269531,6069.632,-7164.998,512
7.271484,6056.997,-7173.247,512
7.273438,6059.979,-7176.596,512
7.275391,6060.472,-7176.517,512
7.277344,6057.534,-7179.634,512
7.279297,6054.042,-7179.846,512
7.28125,6068.742,-7164.251,512
7.283203,6072.012,-7164.258,512
7.285156,6066.186,-7180.888,512
7.287109,6077.214,-7165.924,512
7.289062,6073.853,-7161.483,512
7.291016,6078.623,-7170.073,512
7.292969,6068.056,-7161.736,512
7.294922,6056.744,-7175.648,512
7.296875,6069.341,-7168.505,512
7.298828,6064.614,-7172.33,512
7.300781,6057.794,-7177.046,512
7.302734,6067.021,-7171.85,512
7.304688,6073.351,-7174.242,512
7.306641,6077.955,-7168.699,512
7.308594,6077.399,-7165.375,512
7.310547,6074.386,-7179.866,512
7.3125,6081.997,-7156.925,512
7.314453,6076.423,-7168.373,512
7.316406,6082.197,-7160.026,512
7.318359,6088.387,-7153.413,512
7.320312,6103.286,-7148.169,512
7.322266,6102.643,-7148.065,512
7.324219,6097.141,-7172.264,512
7.326172,6105.167,-7181.693,512
7.328125,6107.935,-7209.362,512
7.330078,6124.544,-7229.083,512
7.332031,6148.661,-7255.023,512
7.333984,6187.736,-7266.477,512
7.335938,6213.853,-7293.768,512
7.337891,6244.178,-7321.717,512
7.339844,6269.004,-7348.607,512
7.341797,6276.867,-7370.004,512
7.34375,6274.902,-7383.042,512
7.345703,6273.678,-7395.389,512
7.347656,6251.581,-7409.308,512
7.349609,6249.89,-7393.567,512
7.351562,6226.215,-7382.297,512
7.353516,6211.817,-7353.609,512
7.355469,6193.219,-7336.275,512
7.357422,6179.511,-7323.505,512
7.359375,6166.414,-7302.815,512
7.361328,6140.822,-7258.824,512
7.363281,6124.566,-7212.153,512
7.365234,6088.672,-7207.144,512
7.367188,6071.985,-7201.148,512
7.369141,6071.976,-7182.829,512
7.371094,6073.057,-7186.317,512
