timestamp,exg1,exg2,srate
0,5102.947,-7898.679,512
0.001953125,5093.159,-7913.516,512
0.00390625,5110.798,-7906.803,512
0.005859375,5117.362,-7911.307,512
0.0078125,5117.11,-7925.259,512
0.009765625,5122.633,-7932.275,512
0.01171875,5137.473,-7923.13,512
0.01367188,5132.473,-7924.188,512
0.015625,5126.964,-7925.482,512
0.01757812,5127.12,-7906.461,512
0.01953125,5130.521,-7907.11,512
0.02148438,5119.556,-7911.034,512
0.0234375,5101.092,-7931.853,512
0.02539062,5106.6,-7932.457,512
0.02734375,5113.938,-7924.323,512
0.02929688,5121.542,-7912.266,512
0.03125,5116.397,-7914.974,512
0.03320312,5107.872,-7915.466,512
0.03515625,5101.034,-7924.609,512
0.03710938,5105.936,-7913.159,512
0.0390625,5082.258,-7926.14,512
0.04101562,5080.831,-7927.083,512
0.04296875,5079.866,-7918.752,512
0.04492188,5069.993,-7914.344,512
0.046875,5064.298,-7916.154,512
0.04882812,5076.803,-7908.531,512
0.05078125,5080.886,-7895.004,512
0.05273438,5069.207,-7906.762,512
0.0546875,5075.001,-7908.493,512
0.05664062,5073.393,-7905.273,512
0.05859375,5053.471,-7934.116,512
0.06054688,5061.601,-7932.118,512
0.0625,5083.934,-7911.649,512
0.06445312,5069.671,-7913.012,512
0.06640625,5070.817,-7906.311,512
0.06835938,5086.676,-7894.084,512
0.0703125,5082.491,-7895.103,512
0.07226562,5060.503,-7909.497,512
0.07421875,5057.011,-7919.668,512
0.07617188,5057.943,-7922.417,512
0.078125,5060.185,-7925.801,512
0.08007812,5066.244,-7918.076,512
0.08203125,5064.715,-7912.853,512
0.08398438,5069.948,-7910.539,512
0.0859375,5060.605,-7916.708,512
0.08789062,5060.438,-7914.127,512
0.08984375,5061.547,-7911.335,512
0.09179688,5060.602,-7915.792,512
0.09375,5052.57,-7924.133,512
0.09570312,5065.12,-7919.315,512
0.09765625,5054.317,-7921.8,512
0.09960938,5045.128,-7920.304,512
0.1015625,5053.959,-7918.655,512
0.1035156,5046.01,-7917.911,512
0.1054688,5044.865,-7916.679,512
0.1074219,5055.97,-7920.303,512
0.109375,5049.385,-7930.507,512
0.1113281,5055.918,-7924.775,512
0.1132812,5049.36,-7929.876,512
0.1152344,5051.348,-7922.195,512
0.1171875,5062.252,-7908.226,512
0.1191406,5060.537,-7910.51,512
0.1210938,5050.186,-7926.263,512
0.1230469,5052.086,-7927.474,512
0.125,5054.426,-7933.931,512
0.1269531,5050.781,-7931.9,512
0.1289062,5054.151,-7930.138,512
0.1308594,5055.988,-7928.417,512
0.1328125,5055.769,-7926.117,512
0.1347656,5060.007,-7923.922,512
0.1367188,5063.992,-7913.92,512
0.1386719,5053.504,-7920.794,512
0.140625,5056.337,-7930.78,512
0.1425781,5065.255,-7935.01,512
0.1445312,5072.042,-7920.404,512
0.1464844,5063.565,-7930.015,512
0.1484375,5080.948,-7914.751,512
0.1503906,5088.065,-7910.123,512
0.1523438,5084.776,-7924.654,512
0.1542969,5094.44,-7919.475,512
0.15625,5101.381,-7936.503,512
0.1582031,5114.127,-7942.78,512
0.1601562,5129.179,-7945.852,512
0.1621094,5147.279,-7961.22,512
0.1640625,5163.545,-7988.315,512
0.1660156,5203.483,-8000.199,512
0.1679688,5225.752,-8028.69,512
0.1699219,5248.544,-8054.005,512
0.171875,5270.839,-8078.182,512
0.1738281,5266.649,-8097.993,512
0.1757812,5254.419,-8111.4,512
0.1777344,5240.327,-8121.837,512
0.1796875,5218.176,-8137.419,512
0.1816406,5183.931,-8127.528,512
0.1835938,5178.779,-8093.187,512
0.1855469,5181.955,-8047.944,512
0.1875,5153.533,-8044.888,512
0.1894531,5131.872,-8029.728,512
0.1914062,5117.45,-8000.688,512
0.1933594,5069.849,-7995.344,512
0.1953125,5064.469,-7968.34,512
0.1972656,5053.913,-7944.454,512
0.1992188,5042.613,-7943.123,512
0.2011719,5054.842,-7935.33,512
0.203125,5046.764,-7933.412,512
0.2050781,5046.385,-7941.058,512
0.2070312,5058.079,-7933.982,512
0.2089844,5061.449,-7928.167,512
0.2109375,5060.463,-7927.52,512
0.2128906,5044.15,-7942.598,512
0.2148438,5064.765,-7930.297,512
0.2167969,5061.199,-7928.06,512
0.21875,5056.808,-7923.592,512
0.2207031,5078.993,-7905.407,512
0.2226562,5073.395,-7923.917,512
0.2246094,5067.877,-7929.446,512
0.2265625,5064.679,-7927.177,512
0.2285156,5066.618,-7930.106,512
0.2304688,5082.033,-7913.999,512
0.2324219,5069.684,-7919.546,512
0.234375,5074.561,-7924.825,512
0.2363281,5087.391,-7927.667,512
0.2382812,5068.56,-7936.903,512
0.2402344,5082.945,-7925.208,512
0.2421875,5077.749,-7932.083,512
0.2441406,5075.429,-7934.838,512
0.2460938,5084.003,-7931.915,512
0.2480469,5082.687,-7931.389,512
0.25,5084.166,-7927.393,512
0.2519531,5077.87,-7928.035,512
0.2539062,5073.972,-7932.764,512
0.2558594,5073.911,-7929.154,512
0.2578125,5083.646,-7922.704,512
0.2597656,5078.788,-7923.128,512
0.2617188,5077.039,-7930.418,512
0.2636719,5082.488,-7925.261,512
0.265625,5088.945,-7918.207,512
0.2675781,5088.205,-7923.366,512
0.2695312,5087.381,-7917.16,512
0.2714844,5086.541,-7924.503,512
0.2734375,5088.085,-7934.704,512
0.2753906,5089.208,-7940.671,512
0.2773438,5085.986,-7943.416,512
0.2792969,5086.589,-7947.258,512
0.28125,5093.852,-7937.259,512
0.2832031,5088.049,-7932.256,512
0.2851562,5068.533,-7945.375,512
0.2871094,5081.063,-7931.206,512
0.2890625,5079.817,-7935.057,512
0.2910156,5082.992,-7928.634,512
0.2929688,5092.733,-7918.7,512
0.2949219,5093.029,-7926.192,512
0.296875,5092.447,-7925.212,512
0.2988281,5090.912,-7925.149,512
0.3007812,5098.725,-7921.098,512
0.3027344,5098.156,-7928.225,512
0.3046875,5102.156,-7918.797,512
0.3066406,5094.762,-7927.043,512
0.3085938,5080.103,-7934.849,512
0.3105469,5085.069,-7928.039,512
0.3125,5093.376,-7931.278,512
0.3144531,5094.225,-7930.973,512
0.3164062,5104.55,-7920.281,512
0.3183594,5104.511,-7924.616,512
0.3203125,5100.285,-7931.766,512
0.3222656,5097.366,-7933.236,512
0.3242188,5091.443,-7939.486,512
0.3261719,5082.788,-7944.718,512
0.328125,5085.472,-7938.273,512
0.3300781,5094.206,-7931.18,512
0.3320312,5108.995,-7911.045,512
0.3339844,5097.162,-7920.918,512
0.3359375,5087.78,-7933.817,512
0.3378906,5094.047,-7935.276,512
0.3398438,5101.587,-7924.856,512
0.3417969,5081.706,-7941.857,512
0.34375,5071.961,-7944.816,512
0.3457031,5082.127,-7942.876,512
0.3476562,5083.392,-7932.65,512
0.3496094,5086.825,-7931.485,512
0.3515625,5084.071,-7941.559,512
0.3535156,5084.1,-7944.13,512
0.3554688,5090.539,-7939.779,512
0.3574219,5084.949,-7943.157,512
0.359375,5094.783,-7938.041,512
0.3613281,5091.095,-7940.002,512
0.3632812,5100.701,-7925.981,512
0.3652344,5088.222,-7942.281,512
0.3671875,5091.793,-7935.656,512
0.3691406,5104.008,-7930.196,512
0.3710938,5097.085,-7933.273,512
0.3730469,5100.145,-7931.266,512
0.375,5093.718,-7942.736,512
0.3769531,5092.464,-7952.727,512
0.3789062,5108.865,-7934.361,512
0.3808594,5102.224,-7940.467,512
0.3828125,5102.361,-7940.437,512
0.3847656,5105.757,-7937.188,512
0.3867188,5109.447,-7934.164,512
0.3886719,5098.935,-7954.356,512
0.390625,5103.175,-7955.294,512
0.3925781,5111.25,-7960.695,512
0.3945312,5111.552,-7954.849,512
0.3964844,5103.489,-7961.282,512
0.3984375,5100.226,-7959.745,512
0.4003906,5106.184,-7959.615,512
0.4023438,5104.747,-7965.288,512
0.4042969,5103.404,-7959.795,512
0.40625,5113.283,-7967.218,512
0.4082031,5103.893,-7975.424,512
0.4101562,5114.473,-7964.478,512
0.4121094,5124.216,-7968.416,512
0.4140625,5124.159,-7963.861,512
0.4160156,5131.762,-7953.86,512
0.4179688,5125.005,-7960.923,512
0.4199219,5126.129,-7968.159,512
0.421875,5131.759,-7968.55,512
0.4238281,5132.279,-7966.045,512
0.4257812,5141.823,-7957.163,512
0.4277344,5150.502,-7955.882,512
0.4296875,5153.346,-7964.562,512
0.4316406,5143.218,-7970.832,512
0.4335938,5154.716,-7959.446,512
0.4355469,5160.083,-7949.051,512
0.4375,5152.786,-7961.316,512
0.4394531,5159.203,-7961.89,512
0.4414062,5157.628,-7967.917,512
0.4433594,5157.089,-7978.313,512
0.4453125,5145.995,-7985.092,512
0.4472656,5137.113,-7986.804,512
0.4492188,5139.664,-7978.47,512
0.4511719,5150.968,-7971.067,512
0.453125,5149.331,-7972.524,512
0.4550781,5137.28,-7983.541,512
0.4570312,5157.109,-7967.508,512
0.4589844,5165.8,-7955.814,512
0.4609375,5145.514,-7981.113,512
0.4628906,5155.559,-7965.404,512
0.4648438,5167.341,-7958.802,512
0.4667969,5161.036,-7969.066,512
0.46875,5154.953,-7966.342,512
0.4707031,5145.107,-7977.024,512
0.4726562,5160.205,-7971.629,512
0.4746094,5150.375,-7971.754,512
0.4765625,5139.8,-7964.43,512
0.4785156,5131.943,-7973.925,512
0.4804688,5127.095,-7964.409,512
0.4824219,5132.814,-7949.144,512
0.484375,5119.818,-7965.406,512
0.4863281,5120.948,-7962.355,512
0.4882812,5107.211,-7968.936,512
0.4902344,5105.675,-7962.627,512
0.4921875,5111.963,-7955.112,512
0.4941406,5107.793,-7954.352,512
0.4960938,5089.085,-7956.655,512
0.4980469,5095.549,-7958.352,512
0.5,5109.778,-7939.588,512
0.5019531,5097.612,-7948.051,512
0.5039062,5090.978,-7953.122,512
0.5058594,5109.095,-7935.283,512
0.5078125,5100.19,-7940.965,512
0.5097656,5095.378,-7943.399,512
0.5117188,5093.923,-7941.394,512
0.5136719,5095.103,-7933.21,512
0.515625,5086.472,-7942.51,512
0.5175781,5094.744,-7939.102,512
0.5195312,5102.424,-7928.579,512
0.5214844,5090.81,-7938.062,512
0.5234375,5073.456,-7947.902,512
0.5253906,5067.543,-7944.686,512
0.5273438,5088.339,-7927.891,512
0.5292969,5091.884,-7930.766,512
0.53125,5080.84,-7931.516,512
0.5332031,5080.977,-7928.138,512
0.5351562,5084.124,-7931.17,512
0.5371094,5079.838,-7924.75,512
0.5390625,5079.592,-7928.786,512
0.5410156,5080.366,-7933.566,512
0.5429688,5074.795,-7937.097,512
0.5449219,5067.621,-7944.438,512
0.546875,5072.739,-7951.941,512
0.5488281,5076.096,-7937.937,512
0.5507812,5073.389,-7941.857,512
0.5527344,5081.449,-7942.431,512
0.5546875,5082.658,-7944.287,512
0.5566406,5073.221,-7953.691,512
0.5585938,5081.514,-7945.343,512
0.5605469,5077.186,-7952.521,512
0.5625,5088.188,-7946.475,512
0.5644531,5088.638,-7941.607,512
0.5664062,5094.873,-7934.107,512
0.5683594,5096.306,-7924.732,512
0.5703125,5083.624,-7944.139,512
0.5722656,5078.779,-7943.312,512
0.5742188,5089.73,-7942.565,512
0.5761719,5090.348,-7942.869,512
0.578125,5091.525,-7940.555,512
0.5800781,5096.497,-7936.898,512
0.5820312,5101.995,-7929.481,512
0.5839844,5090.818,-7933.972,512
0.5859375,5084.59,-7941.714,512
0.5878906,5082.39,-7949.313,512
0.5898438,5086.972,-7944.812,512
0.5917969,5084.238,-7946.247,512
0.59375,5075.734,-7956.84,512
0.5957031,5079.706,-7950.948,512
0.5976562,5080.434,-7957.187,512
0.5996094,5084.606,-7958.317,512
0.6015625,5079.461,-7957.427,512
0.6035156,5078.164,-7954.135,512
0.6054688,5081.161,-7954.401,512
0.6074219,5075.534,-7959.432,512
0.609375,5082.005,-7953.916,512
0.6113281,5084.128,-7951.652,512
0.6132812,5089.936,-7948.839,512
0.6152344,5078.856,-7966.099,512
0.6171875,5090.864,-7944.232,512
0.6191406,5089.331,-7941.322,512
0.6210938,5084.87,-7954.791,512
0.6230469,5086.11,-7948.405,512
0.625,5088.988,-7957.007,512
0.6269531,5088.962,-7957.24,512
0.6289062,5109.062,-7942.994,512
0.6308594,5092.987,-7936.053,512
0.6328125,5088.027,-7939.002,512
0.6347656,5089.169,-7952.605,512
0.6367188,5072.742,-7964.337,512
0.6386719,5077.234,-7961.731,512
0.640625,5090.242,-7950.603,512
0.6425781,5096.357,-7947.861,512
0.6445312,5084.475,-7962.455,512
0.6464844,5086.198,-7958.721,512
0.6484375,5093.51,-7945.797,512
0.6503906,5088.74,-7956.814,512
0.6523438,5090.635,-7953.224,512
0.6542969,5097.131,-7952.298,512
0.65625,5103.063,-7946.577,512
0.6582031,5095.349,-7946.417,512
0.6601562,5092.784,-7950.794,512
0.6621094,5094.459,-7949.764,512
0.6640625,5088.379,-7950.528,512
0.6660156,5082.138,-7952.605,512
0.6679688,5076.661,-7952.154,512
0.6699219,5072.492,-7955.053,512
0.671875,5082.571,-7940.686,512
0.6738281,5074.607,-7952.582,512
0.6757812,5066.277,-7965.2,512
0.6777344,5076.057,-7958.867,512
0.6796875,5069.614,-7956.785,512
0.6816406,5075.55,-7954.379,512
0.6835938,5085.817,-7942.303,512
0.6855469,5096.847,-7925.742,512
0.6875,5094.297,-7941,512
0.6894531,5084.241,-7939.976,512
0.6914062,5075.751,-7945.121,512
0.6933594,5075.274,-7944.14,512
0.6953125,5076.877,-7937.529,512
0.6972656,5080.597,-7936.673,512
0.6992188,5083.631,-7929.011,512
0.7011719,5090.339,-7939.807,512
0.703125,5104.416,-7925.454,512
0.7050781,5087.054,-7943.612,512
0.7070312,5107.949,-7922.646,512
0.7089844,5107.604,-7922.197,512
0.7109375,5103.802,-7935.96,512
0.7128906,5098.986,-7940.893,512
0.7148438,5088.479,-7937.231,512
0.7167969,5101.114,-7920.481,512
0.71875,5095.044,-7925.01,512
0.7207031,5083.82,-7928.293,512
0.7226562,5084.469,-7935.828,512
0.7246094,5076.057,-7943.256,512
0.7265625,5077.208,-7936.902,512
0.7285156,5074.281,-7943.702,512
0.7304688,5082.219,-7939.925,512
0.7324219,5078.85,-7943.37,512
0.734375,5087.947,-7932.769,512
0.7363281,5085.532,-7930.669,512
0.7382812,5085.246,-7931.277,512
0.7402344,5088.679,-7931.934,512
0.7421875,5080.737,-7939.442,512
0.7441406,5074.546,-7952.73,512
0.7460938,5075.769,-7949.555,512
0.7480469,5076.448,-7947.934,512
0.75,5081.455,-7943.807,512
0.7519531,5072.72,-7949.854,512
0.7539062,5089.125,-7935.738,512
0.7558594,5080.149,-7944.936,512
0.7578125,5084.244,-7944.643,512
0.7597656,5098.45,-7937.38,512
0.7617188,5088.794,-7941.502,512
0.7636719,5086.292,-7945.354,512
0.765625,5088.86,-7944.398,512
0.7675781,5088.009,-7937.841,512
0.7695312,5092.22,-7934.837,512
0.7714844,5094.853,-7938.23,512
0.7734375,5091.604,-7944.117,512
0.7753906,5116.268,-7922.274,512
0.7773438,5119.907,-7929.611,512
0.7792969,5113.812,-7934.572,512
0.78125,5117.729,-7917.992,512
0.7832031,5120.529,-7926.615,512
0.7851562,5125.183,-7929.565,512
0.7871094,5132.373,-7930.6,512
0.7890625,5126.137,-7933.785,512
0.7910156,5103.984,-7951.762,512
0.7929688,5100.628,-7943.391,512
0.7949219,5095.062,-7943.741,512
0.796875,5092.967,-7954.052,512
0.7988281,5120.76,-7939.894,512
0.8007812,5132.005,-7934.09,512
0.8027344,5116.033,-7961.068,512
0.8046875,5100.288,-7990.07,512
0.8066406,5104.297,-7986.412,512
0.8085938,5102.374,-7984.958,512
0.8105469,5108.041,-7975.173,512
0.8125,5111.948,-7965.721,512
0.8144531,5108.716,-7964.131,512
0.8164062,5098.469,-7966.282,512
0.8183594,5115.584,-7950.345,512
0.8203125,5116.284,-7943.859,512
0.8222656,5111.656,-7942.898,512
0.8242188,5112.826,-7941.319,512
0.8261719,5103.226,-7947.648,512
0.828125,5105.898,-7940.369,512
0.8300781,5109.519,-7937.179,512
0.8320312,5108.057,-7938.106,512
0.8339844,5096.316,-7944.724,512
0.8359375,5099.465,-7941.471,512
0.8378906,5101.477,-7935.402,512
0.8398438,5096.153,-7943.144,512
0.8417969,5076.624,-7951.74,512
0.84375,5072.507,-7954.519,512
0.8457031,5085.343,-7924.696,512
0.8476562,5079.77,-7926.772,512
0.8496094,5070.02,-7939,512
0.8515625,5062.936,-7945.624,512
0.8535156,5063.228,-7945.781,512
0.8554688,5058.65,-7945.86,512
0.8574219,5085.289,-7919.574,512
0.859375,5082.173,-7927.997,512
0.8613281,5070.144,-7938.401,512
0.8632812,5072.977,-7936.316,512
0.8652344,5081.954,-7929.938,512
0.8671875,5076.539,-7931.37,512
0.8691406,5066.707,-7932.458,512
0.8710938,5068.156,-7939.587,512
0.8730469,5068.708,-7947.44,512
0.875,5092.993,-7934.567,512
0.8769531,5090.261,-7923.143,512
0.8789062,5071.486,-7925.667,512
0.8808594,5069.853,-7925.17,512
0.8828125,5075.978,-7923.931,512
0.8847656,5068.188,-7930.482,512
0.8867188,5074.01,-7925.331,512
0.8886719,5069.791,-7938.855,512
0.890625,5059.14,-7945.299,512
0.8925781,5057.777,-7945.84,512
0.8945312,5053.375,-7950.706,512
0.8964844,5050.73,-7949.905,512
0.8984375,5056.252,-7950.241,512
0.9003906,5060.868,-7941.04,512
0.9023438,5061.814,-7937.184,512
0.9042969,5058.086,-7940.505,512
0.90625,5048.424,-7948.35,512
0.9082031,5053.332,-7941.708,512
0.9101562,5056.408,-7947.59,512
0.9121094,5066.761,-7933.578,512
0.9140625,5070.762,-7926.548,512
0.9160156,5064.902,-7929.662,512
0.9179688,5060.032,-7941.621,512
0.9199219,5077.151,-7931.263,512
0.921875,5071.794,-7929.121,512
0.9238281,5068.31,-7933.747,512
0.9257812,5083.006,-7928.072,512
0.9277344,5067.312,-7942.775,512
0.9296875,5065.59,-7943.744,512
0.9316406,5074.732,-7930.408,512
0.9335938,5063.779,-7951.914,512
0.9355469,5066.404,-7936.289,512
0.9375,5068.085,-7935.661,512
0.9394531,5067.283,-7940.148,512
0.9414062,5084.468,-7936.003,512
0.9433594,5092.375,-7923.567,512
0.9453125,5082.248,-7932.769,512
0.9472656,5084.219,-7930.253,512
0.9492188,5086.866,-7923.615,512
0.9511719,5093.417,-7920.191,512
0.953125,5108.287,-7919.574,512
0.9550781,5126.28,-7915.312,512
0.9570312,5127.666,-7921.619,512
0.9589844,5122.855,-7935.498,512
0.9609375,5144.935,-7927.318,512
0.9628906,5162.386,-7945.849,512
0.9648438,5171.86,-7981.396,512
0.9667969,5191.844,-8006.295,512
0.96875,5229.819,-8012.956,512
0.9707031,5238.029,-8051.214,512
0.9726562,5248.813,-8077.08,512
0.9746094,5248.224,-8105.851,512
0.9765625,5249.325,-8110.378,512
0.9785156,5231.885,-8116.714,512
0.9804688,5238.81,-8113.556,512
0.9824219,5206.159,-8117.256,512
0.984375,5195.34,-8084.974,512
0.9863281,5190.435,-8057.931,512
0.9882812,5167.881,-8048.627,512
0.9902344,5140.062,-8038.508,512
0.9921875,5142.221,-8002.113,512
0.9941406,5118.213,-7976.755,512
0.9960938,5092.628,-7962.587,512
0.9980469,5082.404,-7937.343,512
1,5074.873,-7928.719,512
1.001953,5081.112,-7924.64,512
1.003906,5077.945,-7922.424,512
1.005859,5084.174,-7921.026,512
1.007812,5079.746,-7920.862,512
1.009766,5080.439,-7935.065,512
1.011719,5079.326,-7940.687,512
1.013672,5096.836,-7919.384,512
1.015625,5102.976,-7915.801,512
1.017578,5095.029,-7924.223,512
1.019531,5081.112,-7934.957,512
1.021484,5080.193,-7924.898,512
1.023438,5087.832,-7926.68,512
1.025391,5069.112,-7925.523,512
1.027344,5065.436,-7919.258,512
1.029297,5082.843,-7908.258,512
1.03125,5099.033,-7901.741,512
1.033203,5088.392,-7907.946,512
1.035156,5093.39,-7899.755,512
1.037109,5095.329,-7901.05,512
1.039062,5097.947,-7906.899,512
1.041016,5087.058,-7915.945,512
1.042969,5094.945,-7910.836,512
1.044922,5100.412,-7902.233,512
1.046875,5109.35,-7899.979,512
1.048828,5098.748,-7904.675,512
1.050781,5090.854,-7899.699,512
1.052734,5094.771,-7905.597,512
1.054688,5103.226,-7900.872,512
1.056641,5092.918,-7908.527,512
1.058594,5083.995,-7919.413,512
1.060547,5095.977,-7901.692,512
1.0625,5096.98,-7899.615,512
1.064453,5107.695,-7888.987,512
1.066406,5099.403,-7899.598,512
1.068359,5091.248,-7914.481,512
1.070312,5102.968,-7899.633,512
1.072266,5079.115,-7943.533,512
1.074219,5083.537,-7926.481,512
1.076172,5098.714,-7916.844,512
1.078125,5090.814,-7921.06,512
1.080078,5096.371,-7920.049,512
1.082031,5101.159,-7923.153,512
1.083984,5092.529,-7916.286,512
1.085938,5095.967,-7917.996,512
1.087891,5098.313,-7918.456,512
1.089844,5101.78,-7918.838,512
1.091797,5099.536,-7919.056,512
1.09375,5091.543,-7923.059,512
1.095703,5092.522,-7921.943,512
1.097656,5086.011,-7926.387,512
1.099609,5096.07,-7922.631,512
1.101562,5118.192,-7904.563,512
1.103516,5098.709,-7916.608,512
1.105469,5083.594,-7940.156,512
1.107422,5096.4,-7924.145,512
1.109375,5093.905,-7924.688,512
1.111328,5104.509,-7915.759,512
1.113281,5093.255,-7912.857,512
1.115234,5103.539,-7913.004,512
1.117188,5106.721,-7914.236,512
1.119141,5106.487,-7916.115,512
1.121094,5094.99,-7927.36,512
1.123047,5100.949,-7917.273,512
1.125,5093.948,-7920.478,512
1.126953,5087.293,-7934.413,512
1.128906,5110.177,-7928.515,512
1.130859,5108.551,-7927.009,512
1.132812,5114.127,-7923.587,512
1.134766,5119.573,-7922.681,512
1.136719,5088.265,-7934.24,512
1.138672,5086.311,-7926.852,512
1.140625,5090.195,-7930.723,512
1.142578,5078.378,-7929.031,512
1.144531,5078.959,-7932.875,512
1.146484,5090.261,-7924.818,512
1.148438,5082.13,-7921.309,512
1.150391,5077.33,-7926.343,512
1.152344,5078.939,-7932.253,512
1.154297,5084.56,-7926.547,512
1.15625,5077.915,-7930.23,512
1.158203,5062.599,-7959.159,512
1.160156,5080.909,-7956.017,512
1.162109,5092.909,-7958.116,512
1.164062,5093.108,-7960.729,512
1.166016,5094.967,-7940.508,512
1.167969,5094.892,-7950.968,512
1.169922,5091.789,-7944.515,512
1.171875,5114.586,-7945.826,512
1.173828,5144.988,-7948.816,512
1.175781,5144.535,-7940.493,512
1.177734,5122.236,-7950.292,512
1.179688,5111.912,-7948.782,512
1.181641,5140.245,-7925.644,512
1.183594,5152.032,-7922.314,512
1.185547,5153.979,-7930.71,512
1.1875,5145.731,-7939.597,512
1.189453,5124.812,-7959.154,512
1.191406,5139.209,-7947.394,512
1.193359,5138.718,-7956.769,512
1.195312,5146.131,-7953.408,512
1.197266,5164.118,-7945.54,512
1.199219,5154.05,-7946.683,512
1.201172,5135.083,-7946.153,512
1.203125,5124.855,-7954.204,512
1.205078,5137.877,-7953.191,512
1.207031,5138.734,-7960.939,512
1.208984,5155.588,-7953.559,512
1.210938,5165.357,-7967.071,512
1.212891,5178.344,-7957.274,512
1.214844,5165.498,-7957.877,512
1.216797,5172.805,-7948.788,512
1.21875,5170.15,-7941.232,512
1.220703,5165.16,-7944.926,512
1.222656,5167.67,-7952.467,512
1.224609,5158.86,-7966.467,512
1.226562,5162.912,-7959.755,512
1.228516,5165.675,-7958.462,512
1.230469,5155.587,-7970.044,512
1.232422,5159.06,-7961.903,512
1.234375,5161.778,-7960.984,512
1.236328,5158.473,-7968.5,512
1.238281,5158.046,-7966.017,512
1.240234,5159.408,-7965.063,512
1.242188,5169.251,-7962.014,512
1.244141,5173.634,-7970.749,512
1.246094,5176.537,-7966.684,512
1.248047,5166.549,-7965.186,512
1.25,5172.348,-7960.324,512
1.251953,5162.761,-7976.234,512
1.253906,5168.252,-7968.842,512
1.255859,5161.419,-7969.124,512
1.257812,5158.809,-7968.374,512
1.259766,5158.271,-7981.157,512
1.261719,5153.691,-7983.512,512
1.263672,5157.707,-7974.753,512
1.265625,5170.881,-7959.791,512
1.267578,5173.135,-7960.368,512
1.269531,5166.84,-7961.96,512
1.271484,5165.69,-7959.803,512
1.273438,5156.879,-7963.833,512
1.275391,5147.691,-7978.088,512
1.277344,5146.404,-7961.257,512
1.279297,5139.969,-7958.615,512
1.28125,5139.67,-7958.934,512
1.283203,5156.27,-7940.357,512
1.285156,5140.7,-7949.749,512
1.287109,5134.476,-7947.143,512
1.289062,5134.189,-7938.974,512
1.291016,5127.062,-7941.188,512
1.292969,5121.41,-7941.242,512
1.294922,5112.89,-7940.324,512
1.296875,5119.383,-7926.105,512
1.298828,5118.041,-7934.154,512
1.300781,5104.411,-7938.67,512
1.302734,5108.25,-7932.725,512
1.304688,5115.471,-7928.809,512
1.306641,5095.794,-7943.949,512
1.308594,5086.493,-7944.683,512
1.310547,5082.735,-7940.557,512
1.3125,5066.167,-7946.581,512
1.314453,5067.961,-7950.552,512
1.316406,5048.56,-7964.59,512
1.318359,5064.986,-7952.04,512
1.320312,5079.498,-7943.703,512
1.322266,5063.716,-7956.372,512
1.324219,5059.916,-7960.514,512
1.326172,5059.616,-7959.662,512
1.328125,5072.245,-7950.873,512
1.330078,5073.563,-7946.471,512
1.332031,5069.108,-7941.756,512
1.333984,5057.425,-7944.269,512
1.335938,5059.702,-7945.426,512
1.337891,5067.167,-7941.232,512
1.339844,5068.567,-7952.539,512
1.341797,5078.758,-7948.283,512
1.34375,5077.551,-7940.539,512
1.345703,5068.696,-7949.68,512
1.347656,5048.388,-7962.381,512
1.349609,5062.013,-7938.934,512
1.351562,5052.972,-7949.475,512
1.353516,5057.96,-7944.742,512
1.355469,5056.238,-7942.956,512
1.357422,5064.945,-7944.554,512
1.359375,5059.665,-7949.856,512
1.361328,5053.33,-7958.137,512
1.363281,5068.314,-7952.69,512
1.365234,5056.273,-7957.139,512
1.367188,5049.296,-7958.644,512
1.369141,5064.983,-7946.703,512
1.371094,5056.271,-7952.559,512
1.373047,5057.381,-7955.488,512
1.375,5060.884,-7955.509,512
1.376953,5071.584,-7947.024,512
1.378906,5087.002,-7937.345,512
1.380859,5076.338,-7943.12,512
1.382812,5072.43,-7936.941,512
1.384766,5059.016,-7936.494,512
1.386719,5054.358,-7929.33,512
1.388672,5060.202,-7931.322,512
1.390625,5071.432,-7935.478,512
1.392578,5063.815,-7944.083,512
1.394531,5049.463,-7946.561,512
1.396484,5032.944,-7957.485,512
1.398438,5064.668,-7945.085,512
1.400391,5085.421,-7932.702,512
1.402344,5087.997,-7942.542,512
1.404297,5104.493,-7927.33,512
1.40625,5090.016,-7933.389,512
1.408203,5064.585,-7949.36,512
1.410156,5050.565,-7955.199,512
1.412109,5056.823,-7943.696,512
1.414062,5064.012,-7943.229,512
1.416016,5069.472,-7934.896,512
1.417969,5074.998,-7937.433,512
1.419922,5080.144,-7946.01,512
1.421875,5081.962,-7952.003,512
1.423828,5074.859,-7952.857,512
1.425781,5062.519,-7964.519,512
1.427734,5071.186,-7954.48,512
1.429688,5065.741,-7959.972,512
1.431641,5068.321,-7952.536,512
1.433594,5071.854,-7935.374,512
1.435547,5058.998,-7948.47,512
1.4375,5073.582,-7946.815,512
1.439453,5072.505,-7947.684,512
1.441406,5059.023,-7959.045,512
1.443359,5051.47,-7953.856,512
1.445312,5061.37,-7941.875,512
1.447266,5069.862,-7939.784,512
1.449219,5068.559,-7954.355,512
1.451172,5074.961,-7954.718,512
1.453125,5074.893,-7959.954,512
1.455078,5078.787,-7955.975,512
1.457031,5094.508,-7939.704,512
1.458984,5077.716,-7959.56,512
1.460938,5075.789,-7961.471,512
1.462891,5082.944,-7950.966,512
1.464844,5091.746,-7945.389,512
1.466797,5081.26,-7942.37,512
1.46875,5081.224,-7946.986,512
1.470703,5088.585,-7941.988,512
1.472656,5066.066,-7963.663,512
1.474609,5052.112,-7965.311,512
1.476562,5053.307,-7951.554,512
1.478516,5061.445,-7955.626,512
1.480469,5082.012,-7951.968,512
1.482422,5108.042,-7942.196,512
1.484375,5092.812,-7953.444,512
1.486328,5080.394,-7954.477,512
1.488281,5077.573,-7948.152,512
1.490234,5068.604,-7957.656,512
1.492188,5058.628,-7964.739,512
1.494141,5066.88,-7953.26,512
1.496094,5060.774,-7953.766,512
1.498047,5064.914,-7946.05,512
1.5,5067.655,-7938.219,512
1.501953,5061.525,-7940.579,512
1.503906,5066.556,-7939.387,512
1.505859,5055.519,-7950.48,512
1.507812,5047.865,-7957.968,512
1.509766,5054.471,-7965.21,512
1.511719,5071.339,-7942.8,512
1.513672,5082.954,-7941.586,512
1.515625,5077.184,-7952.98,512
1.517578,5060.618,-7952.113,512
1.519531,5047.681,-7960.269,512
1.521484,5056.299,-7959.627,512
1.523438,5047.091,-7961.096,512
1.525391,5034.274,-7963.708,512
1.527344,5046.351,-7969.586,512
1.529297,5042.309,-7975.862,512
1.53125,5046.533,-7964.728,512
1.533203,5058.272,-7954.065,512
1.535156,5041.907,-7962.46,512
1.537109,5037.464,-7971.814,512
1.539062,5028.763,-7985.71,512
1.541016,5052.961,-7975.395,512
1.542969,5061.1,-7976.319,512
1.544922,5058.518,-7978.819,512
1.546875,5054.134,-7970.162,512
1.548828,5037.148,-7982.037,512
1.550781,5048.848,-7982.587,512
1.552734,5047.778,-7976.885,512
1.554688,5048.378,-7966.604,512
1.556641,5063.737,-7964.452,512
1.558594,5032.273,-7989.343,512
1.560547,5047.355,-7977.979,512
1.5625,5051.446,-7966.852,512
1.564453,5057.523,-7959.736,512
1.566406,5040.817,-7970.582,512
1.568359,5052.009,-7958.183,512
1.570312,5062.818,-7945.825,512
1.572266,5050.846,-7944.926,512
1.574219,5069.014,-7944.568,512
1.576172,5070.674,-7964.713,512
1.578125,5084.692,-7957.683,512
1.580078,5091.934,-7952.721,512
1.582031,5084.089,-7948.371,512
1.583984,5073.284,-7964.934,512
1.585938,5070.291,-7965.395,512
1.587891,5066.898,-7946.454,512
1.589844,5059.893,-7962.67,512
1.591797,5070.686,-7973.942,512
1.59375,5091.84,-7975.145,512
1.595703,5113.204,-7977.147,512
1.597656,5114.035,-7981.113,512
1.599609,5128.925,-7969.999,512
1.601562,5107.04,-7989.893,512
1.603516,5098.025,-7998.23,512
1.605469,5098.072,-7991.672,512
1.607422,5087.113,-8001.572,512
1.609375,5088.211,-8001.104,512
1.611328,5098.211,-7977.438,512
1.613281,5088.374,-7971.892,512
1.615234,5086.761,-7970.394,512
1.617188,5083.447,-7969.219,512
1.619141,5082.379,-7961.893,512
1.621094,5075.784,-7965.788,512
1.623047,5075.973,-7967.701,512
1.625,5073.564,-7966.709,512
1.626953,5073.213,-7959.19,512
1.628906,5079.132,-7955.368,512
1.630859,5071.97,-7953.005,512
1.632812,5058.887,-7962.849,512
1.634766,5047.328,-7976.432,512
1.636719,5069.342,-7962.348,512
1.638672,5063.934,-7973.855,512
1.640625,5054.733,-7973.359,512
1.642578,5040.821,-7965.7,512
1.644531,5019.195,-7974.118,512
1.646484,5039.023,-7966.121,512
1.648438,5038.361,-7964.317,512
1.650391,5038.709,-7961.75,512
1.652344,5036.327,-7952.846,512
1.654297,5016.876,-7953.248,512
1.65625,4997.793,-7968.29,512
1.658203,5011.481,-7967.654,512
1.660156,5029.029,-7960.45,512
1.662109,5057.78,-7949.696,512
1.664062,5048.124,-7960.58,512
1.666016,5037.975,-7953.51,512
1.667969,5031.239,-7950.66,512
1.669922,5037.407,-7949.033,512
1.671875,5040.554,-7952.396,512
1.673828,5015.814,-7971.685,512
1.675781,5013.441,-7968.554,512
1.677734,5023.146,-7968.872,512
1.679688,5024.073,-7969.159,512
1.681641,5043.856,-7959.402,512
1.683594,5061.144,-7958.941,512
1.685547,5047.276,-7965.345,512
1.6875,5046.504,-7971.527,512
1.689453,5038.91,-7977.504,512
1.691406,5046.598,-7966.81,512
1.693359,5049.16,-7957.412,512
1.695312,5025.455,-7963.853,512
1.697266,5030.731,-7955.621,512
1.699219,5024.276,-7953.858,512
1.701172,5024.824,-7962.418,512
1.703125,5029.268,-7966.976,512
1.705078,5046.124,-7956.834,512
1.707031,5034.023,-7972.112,512
1.708984,5022.893,-7981.9,512
1.710938,5030.064,-7979.801,512
1.712891,5019.115,-7989.865,512
1.714844,5029.062,-7981.469,512
1.716797,5025.519,-7978.48,512
1.71875,5008.172,-7985.655,512
1.720703,5024.064,-7965.721,512
1.722656,5016.498,-7977.355,512
1.724609,5018.129,-7981.492,512
1.726562,5028.856,-7974.145,512
1.728516,5012.246,-7987.813,512
1.730469,5029.159,-7979.801,512
1.732422,5025.753,-7980.765,512
1.734375,5026.66,-7974.768,512
1.736328,5032.778,-7969.381,512
1.738281,5034.221,-7972.989,512
1.740234,5037.735,-7968.353,512
1.742188,5042.326,-7967.896,512
1.744141,5043.986,-7961.41,512
1.746094,5041.289,-7955.917,512
1.748047,5047.459,-7952.076,512
1.75,5045.745,-7954.648,512
1.751953,5056.057,-7952.461,512
1.753906,5059.07,-7964.358,512
1.755859,5057.486,-7978.752,512
1.757812,5076.748,-7991.185,512
1.759766,5094.924,-8005.658,512
1.761719,5121.159,-8026.134,512
1.763672,5146.967,-8049.037,512
1.765625,5170.404,-8070.085,512
1.767578,5193.383,-8100.872,512
1.769531,5221.292,-8123.908,512
1.771484,5229.544,-8140.633,512
1.773438,5232.906,-8159.19,512
1.775391,5234.401,-8171.874,512
1.777344,5229.53,-8170.099,512
1.779297,5207.512,-8170.069,512
1.78125,5178.621,-8155.742,512
1.783203,5173.661,-8124.585,512
1.785156,5166.901,-8108.843,512
1.787109,5148.171,-8098.549,512
1.789062,5156.379,-8065.61,512
1.791016,5109.983,-8049.818,512
1.792969,5053.969,-8027.318,512
1.794922,5038.073,-8018.662,512
1.796875,5033.525,-7997.096,512
1.798828,5035.364,-7980.548,512
1.800781,5028.892,-7984.56,512
1.802734,5041.312,-7962.463,512
1.804688,5034.631,-7965.645,512
1.806641,5034.649,-7967.002,512
1.808594,5031.312,-7976.619,512
1.810547,5039.2,-7968.742,512
1.8125,5042.596,-7953.874,512
1.814453,5032.769,-7956.134,512
1.816406,5030.252,-7948.611,512
1.818359,5033.155,-7951.203,512
1.820312,5046.565,-7943.957,512
1.822266,5049.28,-7954.272,512
1.824219,5053.051,-7951.509,512
1.826172,5051.897,-7945.738,512
1.828125,5042.422,-7961.051,512
1.830078,5043.742,-7953.926,512
1.832031,5052.938,-7945.25,512
1.833984,5059.399,-7945.185,512
1.835938,5051.194,-7949.705,512
1.837891,5044.68,-7953.119,512
1.839844,5034.398,-7962.835,512
1.841797,5045.4,-7949.214,512
1.84375,5039.394,-7954.243,512
1.845703,5047.38,-7955.659,512
1.847656,5050.646,-7946.399,512
1.849609,5028.804,-7962.682,512
1.851562,5036.891,-7957.39,512
1.853516,5039.046,-7950.629,512
1.855469,5038.431,-7956.67,512
1.857422,5036.298,-7958.64,512
1.859375,5032.391,-7962.115,512
1.861328,5012.063,-7967.236,512
1.863281,5016.673,-7959.7,512
1.865234,5011.933,-7967.875,512
1.867188,4998.615,-7967.858,512
1.869141,5002.292,-7963.925,512
1.871094,5020.405,-7958.547,512
1.873047,4999.703,-7967.586,512
1.875,4992.643,-7968.823,512
1.876953,4995.886,-7977.862,512
1.878906,5028.438,-7964.47,512
1.880859,5032.967,-7969.071,512
1.882812,5056.679,-7964.12,512
1.884766,5079.342,-7958.315,512
1.886719,5064.946,-7965.5,512
1.888672,5042.029,-7990.878,512
1.890625,5046.392,-7990.317,512
1.892578,5053.681,-7978.843,512
1.894531,5061.268,-7969,512
1.896484,5052.63,-7974.258,512
1.898438,5033.354,-7985.96,512
1.900391,5021.034,-7975.69,512
1.902344,5029.683,-7966.172,512
1.904297,5028.517,-7980.053,512
1.90625,5039.493,-7969.614,512
1.908203,5033.424,-7974.328,512
1.910156,5033.053,-7977.469,512
1.912109,5055.703,-7975.11,512
1.914062,5065.292,-7973.75,512
1.916016,5066.566,-7969.204,512
1.917969,5066.474,-7966.835,512
1.919922,5064.231,-7970.031,512
1.921875,5049.971,-7984.976,512
1.923828,5052.794,-7984.805,512
1.925781,5059.104,-7977.339,512
1.927734,5046.581,-7997.462,512
1.929688,5043.656,-7994.028,512
1.931641,5037.057,-7997.632,512
1.933594,5026.377,-8004.453,512
1.935547,5027.218,-7996.582,512
1.9375,5017.908,-8001.45,512
1.939453,5031.407,-7991.297,512
1.941406,5029.039,-7997.421,512
1.943359,5040.778,-7991.345,512
1.945312,5050.147,-7987.122,512
1.947266,5048.242,-7989.147,512
1.949219,5061.729,-7975.972,512
1.951172,5044.111,-7987.068,512
1.953125,5048.461,-7985.861,512
1.955078,5047.861,-7979.475,512
1.957031,5051.358,-7970.044,512
1.958984,5048.426,-7978.352,512
1.960938,5053.66,-7978.295,512
1.962891,5047.438,-7979.069,512
1.964844,5040.369,-7983.047,512
1.966797,5058.923,-7965.183,512
1.96875,5061.58,-7971.334,512
1.970703,5067.652,-7970.442,512
1.972656,5078.749,-7964.017,512
1.974609,5056.153,-7975.977,512
1.976562,5029.236,-7990.336,512
1.978516,5030.988,-7986.869,512
1.980469,5036.831,-7987.682,512
1.982422,5044.007,-7984.168,512
1.984375,5083.378,-7973.922,512
1.986328,5091.176,-7976.917,512
1.988281,5081.563,-7987.87,512
1.990234,5067.327,-7999.155,512
1.992188,5065.766,-8000.947,512
1.994141,5068.52,-8003.36,512
1.996094,5077.677,-7988.771,512
1.998047,5082.142,-7977.777,512
2,5081.325,-7981.659,512
2.001953,5089.859,-7979.644,512
2.003906,5082.225,-7986.619,512
2.005859,5072.638,-7998.262,512
2.007812,5082.477,-7994.673,512
2.009766,5076.055,-8008.676,512
2.011719,5088.722,-8002.396,512
2.013672,5092.637,-8007.514,512
2.015625,5085.419,-8015.423,512
2.017578,5096.446,-8006.67,512
2.019531,5098.118,-8008.969,512
2.021484,5103.989,-8005.002,512
2.023438,5084.199,-8021.607,512
2.025391,5073.374,-8022.396,512
2.027344,5081.762,-8008.059,512
2.029297,5076.406,-8008.169,512
2.03125,5075.893,-8004.288,512
2.033203,5071.165,-8000.239,512
2.035156,5075.346,-8002.076,512
2.037109,5071.75,-8006.405,512
2.039062,5093.708,-8013.276,512
2.041016,5096.527,-8018.447,512
2.042969,5078.281,-8030.533,512
2.044922,5092.055,-8022.65,512
2.046875,5100.763,-8019.731,512
2.048828,5110.611,-8007.693,512
2.050781,5118.972,-7997.65,512
2.052734,5140.897,-7997.679,512
2.054688,5144.54,-7998.684,512
2.056641,5137.538,-8004.417,512
2.058594,5147.352,-7997.81,512
2.060547,5134.956,-8009.21,512
2.0625,5143.108,-8000.226,512
2.064453,5132.108,-8003.525,512
2.066406,5133.474,-7994.121,512
2.068359,5122.019,-7998.314,512
2.070312,5126.972,-7992.481,512
2.072266,5120.248,-7996.762,512
2.074219,5107.497,-8004.608,512
2.076172,5101.145,-8006.722,512
2.078125,5098.025,-8010.881,512
2.080078,5095.473,-7998.968,512
2.082031,5095.412,-7989.939,512
2.083984,5077.278,-8007.306,512
2.085938,5073.896,-8003.407,512
2.087891,5075.253,-7991.28,512
2.089844,5056.517,-8005.582,512
2.091797,5051.038,-8008.529,512
2.09375,5056.023,-8002.268,512
2.095703,5049.093,-7999.902,512
2.097656,5059.972,-7988.018,512
2.099609,5052.844,-7998.008,512
2.101562,5045.546,-7990.543,512
2.103516,5053.128,-7983.495,512
2.105469,5032.96,-8005.128,512
2.107422,5038.845,-7998.834,512
2.109375,5028.707,-7999.248,512
2.111328,5029.514,-7994.959,512
2.113281,5029.517,-7992.095,512
2.115234,5024.692,-7992.098,512
2.117188,5022.403,-7987.257,512
2.119141,5039.529,-7988.176,512
2.121094,5039.693,-7991.79,512
2.123047,5039.922,-7990.059,512
2.125,5027.701,-7988.718,512
2.126953,5000.619,-7998.052,512
2.128906,5006.615,-7998.892,512
2.130859,5020.136,-7998.726,512
2.132812,5035.342,-7992.035,512
2.134766,5043.163,-7983.691,512
2.136719,5018.43,-7999.478,512
2.138672,5015.942,-7997.972,512
2.140625,5022.54,-7991.235,512
2.142578,5030.851,-7990.067,512
2.144531,5029.5,-7996.422,512
2.146484,5031.586,-7998.005,512
2.148438,5040.56,-7991.72,512
2.150391,5049.336,-7988.113,512
2.152344,5047.878,-7986.344,512
2.154297,5036.902,-7987.158,512
2.15625,5032.543,-7992.209,512
2.158203,5021.211,-7997.037,512
2.160156,5033.255,-7984.511,512
2.162109,5032.002,-7996.212,512
2.164062,5024.163,-7999.555,512
2.166016,5030.899,-7993.417,512
2.167969,5028.024,-7993.537,512
2.169922,5039.259,-7980.974,512
2.171875,5033.443,-7991.957,512
2.173828,5023.887,-8006.722,512
2.175781,5028.286,-8008.511,512
2.177734,5027.981,-8010.25,512
2.179688,5041.618,-7991.738,512
2.181641,5028.766,-8000.294,512
2.183594,5011.635,-8016.892,512
2.185547,5017.793,-8002.081,512
2.1875,5022.8,-7993.74,512
2.189453,5019.934,-7999.114,512
2.191406,5022.997,-7993.547,512
2.193359,5024.489,-7996.407,512
2.195312,5031.186,-7993.44,512
2.197266,5043.725,-7986.537,512
2.199219,5034.589,-7986.537,512
2.201172,5029.188,-7983.168,512
2.203125,5031.099,-7995.689,512
2.205078,5023.9,-7995.861,512
2.207031,5022.649,-7991.158,512
2.208984,5029.884,-7982.671,512
2.210938,5032.542,-7983.317,512
2.212891,5033.151,-7983.777,512
2.214844,5020.146,-7995.67,512
2.216797,5021.05,-7993.766,512
2.21875,5023.278,-7974.146,512
2.220703,5012.56,-7984.829,512
2.222656,5005.737,-7986.688,512
2.224609,5011.189,-7990.152,512
2.226562,5024.642,-7994.896,512
2.228516,5032.159,-7997.004,512
2.230469,5041.496,-7989.948,512
2.232422,5045.165,-7988.587,512
2.234375,5034.761,-7991.068,512
2.236328,5044.671,-7983.357,512
2.238281,5047.696,-7979.354,512
2.240234,5039.476,-7991.007,512
2.242188,5037.548,-8000.901,512
2.244141,5037.733,-8000.909,512
2.246094,5038.146,-7990.51,512
2.248047,5010.43,-7986.561,512
2.25,4990.835,-7987.366,512
2.251953,4996.792,-7993.441,512
2.253906,5006.042,-8003.795,512
2.255859,5039.269,-7994.643,512
2.257812,5037.994,-7998.698,512
2.259766,5024.631,-8013.438,512
2.261719,5035.92,-8004.118,512
2.263672,5039.851,-8009.928,512
2.265625,5037.119,-8014.441,512
2.267578,5034.903,-8011.092,512
2.269531,5036.705,-8008.234,512
2.271484,5029.053,-8002.141,512
2.273438,5006.197,-8016.202,512
2.275391,4995.464,-8018.008,512
2.277344,5002.803,-8014.396,512
2.279297,5001.112,-8014.192,512
2.28125,5000.351,-8009.05,512
2.283203,5001.86,-8005.474,512
2.285156,4993.889,-8015.547,512
2.287109,5013.123,-8001.628,512
2.289062,5008.351,-8011.609,512
2.291016,5009.188,-8014.907,512
2.292969,5020.595,-8009.218,512
2.294922,5017.38,-8010.168,512
2.296875,5014.54,-8016.896,512
2.298828,5030.847,-7998.854,512
2.300781,5024.237,-8004.704,512
2.302734,5017.182,-8017.993,512
2.304688,5025.351,-8003.939,512
2.306641,5020.694,-8012.715,512
2.308594,5017.731,-8012.214,512
2.310547,5006.869,-8016.671,512
2.3125,4993.626,-8015.055,512
2.314453,4986.236,-8018.061,512
2.316406,5003.224,-8013.914,512
2.318359,5019.54,-8007.024,512
2.320312,5020.199,-8008.779,512
2.322266,5012.724,-8007.798,512
2.324219,5001.759,-8000.684,512
2.326172,5005.144,-8002.897,512
2.328125,5012.747,-8008.258,512
2.330078,5028.536,-7997.894,512
2.332031,5027.248,-7989.408,512
2.333984,5019.729,-7993.513,512
2.335938,5027.418,-7991.893,512
2.337891,5033.282,-7997.294,512
2.339844,5028.967,-8013.817,512
2.341797,5024.681,-8009.435,512
2.34375,5029.845,-8002.242,512
2.345703,5007.773,-8010.441,512
2.347656,5000.151,-8008.888,512
2.349609,5015.712,-8005.344,512
2.351562,5033.405,-7997.982,512
2.353516,5027.876,-8024.038,512
2.355469,5014,-8024.41,512
2.357422,5001.102,-8029.206,512
2.359375,5016.333,-8018.138,512
2.361328,5010.897,-8023.188,512
2.363281,5008.98,-8021.533,512
2.365234,5011.115,-8017.46,512
2.367188,5013.2,-8015.842,512
2.369141,4998.91,-8024.514,512
2.371094,5022.602,-8009.288,512
2.373047,5022.832,-7998.84,512
2.375,5011.424,-8010.697,512
2.376953,5026.85,-8006.331,512
2.378906,5018.168,-8016.978,512
2.380859,5005.782,-8025.39,512
2.382812,5002.386,-8016.892,512
2.384766,5012.637,-8006.825,512
2.386719,5010.705,-8016.628,512
2.388672,5008.571,-8016.506,512
2.390625,5007.438,-8025.227,512
2.392578,5003.914,-8023.463,512
2.394531,4995.509,-8023.777,512
2.396484,5000.098,-8020.455,512
2.398438,5010.095,-8009.823,512
2.400391,5002.157,-8014.84,512
2.402344,5013.156,-8012.461,512
2.404297,5021.366,-8010.651,512
2.40625,5007.428,-8023.08,512
2.408203,5010.191,-8015.907,512
2.410156,5002.831,-8020.769,512
2.412109,5012.896,-8016.237,512
2.414062,5013.676,-8011.04,512
2.416016,5031.545,-7999.376,512
2.417969,5034.59,-8014.656,512
2.419922,5032.094,-8016.349,512
2.421875,5022.374,-8019.337,512
2.423828,5015.621,-8019.637,512
2.425781,5013.476,-8017.313,512
2.427734,5007.261,-8020.609,512
2.429688,5015.583,-8013.901,512
2.431641,5024.671,-8011.108,512
2.433594,5031.903,-8017.241,512
2.435547,5040.64,-8010.728,512
2.4375,5021.966,-8018.272,512
2.439453,5006.233,-8033.305,512
2.441406,5013.055,-8035.607,512
2.443359,5029.43,-8028.416,512
2.445312,5027.722,-8042.222,512
2.447266,5050.6,-8035.363,512
2.449219,5059.691,-8032.899,512
2.451172,5061.179,-8040.339,512
2.453125,5059.484,-8040.052,512
2.455078,5040.256,-8056.417,512
2.457031,5052.499,-8046.941,512
2.458984,5048.343,-8047.823,512
2.460938,5040.613,-8051.396,512
2.462891,5045.715,-8037.881,512
2.464844,5042.4,-8036.452,512
2.466797,5041.391,-8031.511,512
2.46875,5038.779,-8027.668,512
2.470703,5026.325,-8027.255,512
2.472656,5023.004,-8031.242,512
2.474609,5031.877,-8024.925,512
2.476562,5020.093,-8033.346,512
2.478516,5021.261,-8023.285,512
2.480469,5019.229,-8020.437,512
2.482422,5026.211,-8016.027,512
2.484375,5019.554,-8018.421,512
2.486328,5002.79,-8032.85,512
2.488281,5001.861,-8027.107,512
2.490234,5000.637,-8034.336,512
2.492188,5003.893,-8026.039,512
2.494141,5014.931,-8019.14,512
2.496094,5027.017,-8002.03,512
2.498047,5019.804,-8000.498,512
2.5,5019.438,-8002.483,512
2.501953,5007.68,-8017.674,512
2.503906,5018.759,-8006.575,512
2.505859,5009.866,-8015.249,512
2.507812,4996.979,-8026.354,512
2.509766,5002.508,-8016.75,512
2.511719,5001.955,-8010.554,512
2.513672,5008.334,-8000.877,512
2.515625,4991.405,-8009.86,512
2.517578,4996.546,-8013.319,512
2.519531,4999.931,-8010.62,512
2.521484,4988.523,-8017.173,512
2.523438,4985.89,-8016.746,512
2.525391,4993.032,-8016.438,512
2.527344,5002.578,-8016.697,512
2.529297,5006.581,-8018.614,512
2.53125,5005.223,-8021.325,512
2.533203,4999.972,-8012.233,512
2.535156,4978.495,-8014.758,512
2.537109,4979.574,-8014.562,512
2.539062,4977.459,-8021.266,512
2.541016,4973.715,-8028.816,512
2.542969,4977.291,-8020.941,512
2.544922,4985.179,-8015.302,512
2.546875,4987.985,-8016.019,512
2.548828,4977.706,-8018.928,512
2.550781,4986.141,-8012.592,512
2.552734,4986.848,-8010.522,512
2.554688,4997.761,-8004.123,512
2.556641,4993.235,-8009,512
2.558594,4976.962,-8012.024,512
2.560547,4976.934,-8018.738,512
2.5625,4990.016,-8007.942,512
2.564453,4994.524,-8007.3,512
2.566406,4992.595,-8003.891,512
2.568359,4996.637,-8002.402,512
2.570312,5000.923,-7987.174,512
2.572266,4990.03,-7996.789,512
2.574219,4984.336,-8011.667,512
2.576172,4988.099,-8011,512
2.578125,4998.325,-8000.093,512
2.580078,5014.404,-7990.081,512
2.582031,4997.454,-8000.996,512
2.583984,4993.877,-7999.224,512
2.585938,5000.829,-7993.082,512
2.587891,4993.881,-8002.866,512
2.589844,4991.61,-8024.198,512
2.591797,4984.174,-8031.08,512
2.59375,4990.301,-8017.667,512
2.595703,4992.565,-8008.586,512
2.597656,4984.939,-8015.944,512
2.599609,4993.671,-7997.141,512
2.601562,4991.584,-7996.355,512
2.603516,4994.222,-8002.513,512
2.605469,5003.317,-8006.732,512
2.607422,5000.647,-8036.306,512
2.609375,5006.211,-8066.819,512
2.611328,5022.685,-8086.217,512
2.613281,5034.652,-8114.354,512
2.615234,5065.562,-8135.092,512
2.617188,5099.299,-8153.496,512
2.619141,5124.267,-8180.64,512
2.621094,5147.115,-8216.184,512
2.623047,5165.159,-8235.289,512
2.625,5177.029,-8249.354,512
2.626953,5177.68,-8262.534,512
2.628906,5190.5,-8253.273,512
2.630859,5190.047,-8251.412,512
2.632812,5170.938,-8246.073,512
2.634766,5137.944,-8239.673,512
2.636719,5128.172,-8216.854,512
2.638672,5123.41,-8189.411,512
2.640625,5111.631,-8157.99,512
2.642578,5080.322,-8132.956,512
2.644531,5022.535,-8106.878,512
2.646484,4985.316,-8077.05,512
2.648438,4971.788,-8062.672,512
2.650391,5009.02,-8033.457,512
2.652344,5020.807,-8024.645,512
2.654297,5028.511,-8012.593,512
2.65625,5020.896,-8011.728,512
2.658203,5013.455,-8010.772,512
2.660156,5005.506,-8020.058,512
2.662109,5016.157,-8005.905,512
2.664062,5008.39,-8002.653,512
2.666016,5003.316,-8002.129,512
2.667969,5008.296,-8002.982,512
2.669922,5007.262,-8002.57,512
2.671875,5002.756,-8008.068,512
2.673828,4992.994,-8018.01,512
2.675781,5002.402,-8013.552,512
2.677734,4997.466,-8013.18,512
2.679688,4987.318,-8018.141,512
2.681641,5005.741,-8013.586,512
2.683594,5013.886,-8005.926,512
2.685547,5018.402,-7998.06,512
2.6875,5010.474,-8006.959,512
2.689453,4991.175,-8015.266,512
2.691406,4990.422,-8011.119,512
2.693359,4992.122,-8012.02,512
2.695312,4995.93,-8010.86,512
2.697266,4995.199,-8018.598,512
2.699219,5002.526,-8011.301,512
2.701172,4998.151,-8006.266,512
2.703125,5002.041,-8001.527,512
2.705078,4996.681,-8011.617,512
2.707031,4980.736,-8029.651,512
2.708984,4990.441,-8025.949,512
2.710938,5006.239,-8011.528,512
2.712891,4988.968,-8012.873,512
2.714844,4967.944,-8017.126,512
2.716797,4976.638,-8006.642,512
2.71875,4983.192,-8009.863,512
2.720703,4992.679,-8017.098,512
2.722656,5017.539,-8016.503,512
2.724609,5027.602,-8013.229,512
2.726562,5004.272,-8022.708,512
2.728516,5003.814,-8007.937,512
2.730469,5008.609,-8008.568,512
2.732422,5007.626,-8013.021,512
2.734375,5019.526,-7995.935,512
2.736328,5004.575,-7992.465,512
2.738281,4987.875,-8011.133,512
2.740234,4990.222,-8013.4,512
2.742188,4986.065,-8023.032,512
2.744141,4987.362,-8020.633,512
2.746094,4983.674,-8011.742,512
2.748047,4993.118,-7991.985,512
2.75,5000.288,-8000.778,512
2.751953,5011.82,-8005.293,512
2.753906,5026.896,-7997.143,512
2.755859,5035.131,-8009.2,512
2.757812,5047.244,-8010.201,512
2.759766,5031.062,-8014.17,512
2.761719,5026.074,-8010.423,512
2.763672,5030.704,-8003.708,512
2.765625,5032.153,-7999.246,512
2.767578,5026.699,-8000.853,512
2.769531,5023.784,-8011.012,512
2.771484,5032.22,-8008.708,512
2.773438,5028.583,-8012.375,512
2.775391,5027.02,-8015.11,512
2.777344,5007.56,-8024.507,512
2.779297,5008.854,-8014.661,512
2.78125,5010.958,-8008.066,512
2.783203,5016.03,-8008.417,512
2.785156,5019.513,-8009.474,512
2.787109,5010.136,-8016.075,512
2.789062,5001.852,-8022.677,512
2.791016,5015.531,-8010.909,512
2.792969,5017.311,-8011.467,512
2.794922,5017.668,-8014.554,512
2.796875,5015.675,-8017.655,512
2.798828,5008.41,-8015.487,512
2.800781,5019.509,-8005.752,512
2.802734,5013.3,-8011.25,512
2.804688,5018.064,-8020.5,512
2.806641,5017.663,-8016.998,512
2.808594,5012.423,-8020.526,512
2.810547,5021.353,-8022.434,512
2.8125,5030.07,-8008.845,512
2.814453,5030.063,-8009.965,512
2.816406,5028.617,-8009.926,512
2.818359,5029.743,-8006.458,512
2.820312,5027.576,-8002.241,512
2.822266,5031.039,-8002.837,512
2.824219,5015.404,-8009.215,512
2.826172,5021.721,-8005.964,512
2.828125,5032.127,-7997.342,512
2.830078,5038.806,-7994.143,512
2.832031,5052.119,-7987.244,512
2.833984,5053.925,-7989.632,512
2.835938,5039.089,-8008.374,512
2.837891,5042.063,-8008.848,512
2.839844,5043.846,-8008.763,512
2.841797,5040.984,-8011.615,512
2.84375,5038.814,-8013.168,512
2.845703,5041.164,-8011.961,512
2.847656,5046.24,-8011.408,512
2.849609,5059.245,-8014.017,512
2.851562,5066.388,-8003.404,512
2.853516,5057.467,-8013.217,512
2.855469,5045.514,-8018.711,512
2.857422,5035.932,-8022.845,512
2.859375,5037.856,-8024.435,512
2.861328,5038.906,-8035.542,512
2.863281,5070.882,-8016.19,512
2.865234,5074.307,-8017.158,512
2.867188,5058.965,-8019.826,512
2.869141,5063.13,-8009.523,512
2.871094,5066.276,-8018.345,512
2.873047,5060.927,-8032.533,512
2.875,5078.377,-8028.296,512
2.876953,5075.792,-8024.407,512
2.878906,5077.301,-8023.26,512
2.880859,5089.641,-8018.949,512
2.882812,5095.737,-8018.748,512
2.884766,5110.883,-8008.566,512
2.886719,5111.099,-8009.226,512
2.888672,5106.665,-8022.372,512
2.890625,5107.292,-8020.113,512
2.892578,5097.612,-8024.747,512
2.894531,5090.251,-8018.808,512
2.896484,5092.031,-8019.515,512
2.898438,5104.722,-8021.857,512
2.900391,5117.643,-8021.719,512
2.902344,5117.524,-8021.589,512
2.904297,5105.26,-8018.45,512
2.90625,5099.987,-8017.608,512
2.908203,5096.766,-8022.62,512
2.910156,5089.209,-8032.73,512
2.912109,5088.066,-8036.194,512
2.914062,5095.668,-8031.022,512
2.916016,5109.199,-8024.372,512
2.917969,5106.933,-8025.942,512
2.919922,5102.005,-8032.387,512
2.921875,5101.955,-8019.677,512
2.923828,5099.175,-8022.611,512
2.925781,5094.213,-8028.097,512
2.927734,5097.75,-8020.648,512
2.929688,5091.734,-8020.458,512
2.931641,5080.551,-8026.842,512
2.933594,5084.584,-8016.297,512
2.935547,5079.49,-8011.615,512
2.9375,5078.169,-8011.983,512
2.939453,5069.123,-8013.849,512
2.941406,5050.414,-8029.355,512
2.943359,5048.779,-8024.771,512
2.945312,5040.891,-8022.168,512
2.947266,5049.27,-8008.502,512
2.949219,5053.535,-7997.891,512
2.951172,5030.389,-8012.809,512
2.953125,5051.523,-7997.715,512
2.955078,5043.1,-8008.967,512
2.957031,5040.559,-8008.388,512
2.958984,5025.208,-8007.521,512
2.960938,5006.556,-8013.54,512
2.962891,5016.004,-8010.854,512
2.964844,5028.033,-8007.218,512
2.966797,5042.937,-8004.162,512
2.96875,5053.417,-7996.919,512
2.970703,5041.408,-7997.597,512
2.972656,5035.492,-8001.693,512
2.974609,5033.163,-8002.138,512
2.976562,5029.226,-8006.705,512
2.978516,5022.484,-8014.174,512
2.980469,5021.694,-8006.99,512
2.982422,5030.391,-7995.908,512
2.984375,5033.307,-7992.548,512
2.986328,5029.892,-7997.661,512
2.988281,5035.263,-7995.116,512
2.990234,5021.844,-8000.451,512
2.992188,5027.84,-7996.993,512
2.994141,5029.258,-8000.153,512
2.996094,5027.455,-7996.332,512
2.998047,5027.013,-7991.005,512
3,5023.938,-7986.911,512
3.001953,5019.086,-7984.93,512
3.003906,5021.159,-7986.799,512
3.005859,5024.233,-7985.64,512
3.007812,5017.156,-7998.485,512
3.009766,5010.511,-8004.619,512
3.011719,5025.629,-7993.046,512
3.013672,5025.614,-7989.152,512
3.015625,5012.804,-7996.096,512
3.017578,5002.968,-7994.568,512
3.019531,4999.704,-7996.232,512
3.021484,5008.797,-7995.252,512
3.023438,5015.446,-7991.769,512
3.025391,5021.866,-7998.436,512
3.027344,5020.796,-8005.556,512
3.029297,5035.863,-7996.002,512
3.03125,5031.544,-7993.156,512
3.033203,5019.753,-7995.187,512
3.035156,5017.425,-7996.265,512
3.037109,5008.085,-8004.876,512
3.039062,5021.793,-7985.887,512
3.041016,5023.858,-7988.363,512
3.042969,5005.992,-8002.238,512
3.044922,5005.86,-8000.459,512
3.046875,4997.209,-8006.248,512
3.048828,5003.703,-7997.343,512
3.050781,5007.428,-7991.996,512
3.052734,5014.066,-7984.22,512
3.054688,5016.11,-7983.279,512
3.056641,5006.699,-7995.31,512
3.058594,5014.72,-7992.168,512
3.060547,5016.034,-7991.143,512
3.0625,5019.924,-7989.912,512
3.064453,5030.743,-7986.053,512
3.066406,5022.841,-7988.731,512
3.068359,5020.652,-7983.213,512
3.070312,5017.634,-7992.697,512
3.072266,5024.086,-7994.288,512
3.074219,5033.499,-7988.337,512
3.076172,5022.635,-7991.379,512
3.078125,5012.669,-7984.802,512
3.080078,5019.724,-7984.346,512
3.082031,5035.753,-7972.183,512
3.083984,5044.16,-7970.86,512
3.085938,5028.417,-7978.107,512
3.087891,5023.349,-7977.477,512
3.089844,5010.822,-7988.6,512
3.091797,5013.296,-7991.654,512
3.09375,5028.022,-7979.873,512
3.095703,5025.475,-7988.598,512
3.097656,5027.484,-7980.171,512
3.099609,5028.167,-7974.233,512
3.101562,5025.528,-7975.683,512
3.103516,5023.767,-7975.324,512
3.105469,5032.086,-7973.989,512
3.107422,5037.359,-7975.769,512
3.109375,5046.606,-7967.633,512
3.111328,5042.881,-7966.97,512
3.113281,5028.869,-7968.877,512
3.115234,5025.405,-7975.227,512
3.117188,5035.915,-7970.816,512
3.119141,5034.907,-7975.231,512
3.121094,5032.288,-7974.417,512
3.123047,5032.946,-7971.963,512
3.125,5021.026,-7979.198,512
3.126953,5020.364,-7973.397,512
3.128906,5022.721,-7975.251,512
3.130859,5023.178,-7973.72,512
3.132812,5024.479,-7976.23,512
3.134766,5026.037,-7977.781,512
3.136719,5026.378,-7978.68,512
3.138672,5027.438,-7977.289,512
3.140625,5023.747,-7974.132,512
3.142578,5011.094,-7981.175,512
3.144531,5018.202,-7981.884,512
3.146484,5020.914,-7979.385,512
3.148438,5020.806,-7979.087,512
3.150391,5023.48,-7983.487,512
3.152344,5015.058,-7989.37,512
3.154297,5002.592,-7994.138,512
3.15625,5008.614,-7986.31,512
3.158203,5018.697,-7987.849,512
3.160156,5023.189,-7994.315,512
3.162109,5028.076,-7990.161,512
3.164062,5037.134,-7977.341,512
3.166016,5040.959,-7977.066,512
3.167969,5022.853,-7990.797,512
3.169922,5018.453,-7993.322,512
3.171875,5018.967,-7994.972,512
3.173828,5022.945,-7989.827,512
3.175781,5014.324,-7995.011,512
3.177734,5014.771,-7989.214,512
3.179688,5020.649,-7982.699,512
3.181641,5013.5,-7987.363,512
3.183594,5012.023,-7988.795,512
3.185547,5013.406,-7982.801,512
3.1875,5015.924,-7982.066,512
3.189453,5017.424,-7982.578,512
3.191406,5017.113,-7979.033,512
3.193359,5016.782,-7983.503,512
3.195312,5016.203,-7981.772,512
3.197266,5018.953,-7976.115,512
3.199219,5014.943,-7979.391,512
3.201172,5018.187,-7972.603,512
3.203125,5025.385,-7962.979,512
3.205078,5018.455,-7974.688,512
3.207031,5011.865,-7986.189,512
3.208984,5025.92,-7975.392,512
3.210938,5036.908,-7964.986,512
3.212891,5019.949,-7978.613,512
3.214844,5022.21,-7968.79,512
3.216797,5017.068,-7972.028,512
3.21875,5016.648,-7978.583,512
3.220703,5015.279,-7982.922,512
3.222656,5013.099,-7985.666,512
3.224609,5017.455,-7983.038,512
3.226562,5008.312,-7987.827,512
3.228516,5015.814,-7976.994,512
3.230469,5016.324,-7979.069,512
3.232422,5016.621,-7981.258,512
3.234375,5020.498,-7981.234,512
3.236328,5028.343,-7972.929,512
3.238281,5018.508,-7980.067,512
3.240234,5008.642,-7992.795,512
3.242188,5011.92,-7991.177,512
3.244141,5017.92,-7989.048,512
3.246094,5013.884,-7995.233,512
3.248047,5013.671,-7990.711,512
3.25,5017.028,-7984.95,512
3.251953,5007.501,-7999.745,512
3.253906,5009.079,-7993.033,512
3.255859,5016.301,-7990.832,512
3.257812,5005.279,-8004.131,512
3.259766,5011.695,-7998.198,512
3.261719,5014.766,-7994.696,512
3.263672,5012.821,-7994.749,512
3.265625,5003.863,-7999.642,512
3.267578,5003.084,-8005.006,512
3.269531,5009.557,-8003.68,512
3.271484,5010.573,-8007.011,512
3.273438,5013.623,-8004.031,512
3.275391,5009.169,-8005.194,512
3.277344,5004.33,-8007.562,512
3.279297,5015.612,-8001.325,512
3.28125,5020.626,-7996.575,512
3.283203,5024.306,-7987.956,512
3.285156,5020.404,-7992.894,512
3.287109,5022.264,-7988.148,512
3.289062,5012.548,-7996.444,512
3.291016,5008.243,-8000.447,512
3.292969,5004.339,-8008.452,512
3.294922,5020.958,-7994.774,512
3.296875,5022.76,-7990.592,512
3.298828,5016.352,-7993.21,512
3.300781,5020.371,-7988.411,512
3.302734,5016.781,-7990.873,512
3.304688,5014.087,-7992.628,512
3.306641,5014.772,-7995.497,512
3.308594,5001.233,-8002.993,512
3.310547,5008.158,-7998.622,512
3.3125,5012.904,-7994.674,512
3.314453,5019.896,-7984.606,512
3.316406,5014.84,-7993.133,512
3.318359,5016.128,-7993.793,512
3.320312,5018.616,-7990.59,512
3.322266,5028.382,-7986.63,512
3.324219,5021.699,-7990.606,512
3.326172,5017.831,-7991.918,512
3.328125,5024.769,-7984.917,512
3.330078,5025.071,-7986.298,512
3.332031,5027.249,-7981.306,512
3.333984,5009.201,-7998.863,512
3.335938,5018.443,-7993.806,512
3.337891,5020.229,-7993.19,512
3.339844,5009.672,-8004.657,512
3.341797,5013.586,-8000.334,512
3.34375,5015.784,-7993.374,512
3.345703,5015.82,-7992.418,512
3.347656,5021.934,-7994.959,512
3.349609,5013.638,-8004.778,512
3.351562,5001.51,-8013.439,512
3.353516,5015.854,-7996.586,512
3.355469,5015.189,-8000.141,512
3.357422,5013.75,-8002.414,512
3.359375,5010.977,-8014.395,512
3.361328,5029.272,-8005.592,512
3.363281,5034.146,-8001.578,512
3.365234,5050.846,-7991.127,512
3.367188,5049.257,-7990.278,512
3.369141,5041.909,-7998.421,512
3.371094,5038.205,-8000.268,512
3.373047,5039.233,-8004.096,512
3.375,5044.289,-8010.844,512
3.376953,5049.217,-8006.284,512
3.378906,5059.854,-8002.437,512
3.380859,5062.288,-8015.289,512
3.382812,5061.457,-8028.843,512
3.384766,5063.817,-8026.254,512
3.386719,5064.17,-8029.794,512
3.388672,5045.745,-8040.373,512
3.390625,5047.297,-8034.265,512
3.392578,5047.1,-8033.425,512
3.394531,5051.903,-8021.527,512
3.396484,5061.657,-8005.634,512
3.398438,5063.798,-7995.49,512
3.400391,5060.201,-7996.142,512
3.402344,5061.746,-7992.293,512
3.404297,5063.036,-7985.733,512
3.40625,5052.619,-7996.603,512
3.408203,5053.092,-7996.394,512
3.410156,5058.331,-7986.304,512
3.412109,5051.671,-7988.116,512
3.414062,5048.831,-7986.143,512
3.416016,5041.083,-7991.792,512
3.417969,5032.875,-8002.167,512
3.419922,5044,-7995.93,512
3.421875,5046.101,-7989.755,512
3.423828,5033.003,-7995.487,512
3.425781,5018.502,-8000.748,512
3.427734,5012.354,-7993.15,512
3.429688,5002.371,-8001.993,512
3.431641,5013.321,-7994.675,512
3.433594,5014.006,-7995.78,512
3.435547,5022.406,-7985.419,512
3.4375,5018.941,-7988.601,512
3.439453,5002.877,-8005.72,512
3.441406,5011.13,-7995.94,512
3.443359,5007.021,-7998.23,512
3.445312,5007.029,-7998.443,512
3.447266,5014.883,-7991.243,512
3.449219,5002.981,-7997.21,512
3.451172,5006.851,-7996.565,512
3.453125,5018.605,-7988.06,512
3.455078,5014.448,-7996.33,512
3.457031,5021.751,-7989.553,512
3.458984,5008.805,-7992.526,512
3.460938,5002.959,-7997.657,512
3.462891,5007.456,-7986.933,512
3.464844,5001.556,-7993.004,512
3.466797,5004.613,-7993.226,512
3.46875,4999.797,-7999.839,512
3.470703,5002.729,-7996.06,512
3.472656,5002.85,-7996.471,512
3.474609,5009.856,-7996.609,512
3.476562,5012.725,-7990.543,512
3.478516,5013.484,-7990.215,512
3.480469,5015.161,-7987.523,512
3.482422,5019.295,-7981.766,512
3.484375,5013.867,-7987.813,512
3.486328,5014.131,-7986.465,512
3.488281,5018.796,-7986.336,512
3.490234,5011.642,-7990.616,512
3.492188,5012.657,-7993.189,512
3.494141,5014.921,-7988.648,512
3.496094,5015.198,-7985.129,512
3.498047,5013.645,-7986.723,512
3.5,5013.576,-7992.303,512
3.501953,5015.627,-7992.365,512
3.503906,5012.165,-7993.8,512
3.505859,5009.839,-7999.27,512
3.507812,5012.588,-7998.746,512
3.509766,5018.686,-7997.467,512
3.511719,5012.933,-7996.717,512
3.513672,5007.633,-7997.125,512
3.515625,5007.889,-8004.907,512
3.517578,5014.802,-8003.858,512
3.519531,5019.34,-7996.995,512
3.521484,5022.03,-7992.312,512
3.523438,5021.454,-7996.08,512
3.525391,5030.037,-7992.426,512
3.527344,5024.268,-7998.518,512
3.529297,5022.299,-7999.337,512
3.53125,5026.531,-7988.481,512
3.533203,5029.081,-7979.927,512
3.535156,5034.09,-7975.001,512
3.537109,5026.942,-7995.685,512
3.539062,5039.787,-8014.755,512
3.541016,5049.315,-8032.008,512
3.542969,5053.003,-8062.568,512
3.544922,5074.633,-8083.397,512
3.546875,5103.156,-8107.787,512
3.548828,5139.145,-8128.496,512
3.550781,5171.696,-8156.534,512
3.552734,5211.689,-8175.929,512
3.554688,5229.421,-8201.766,512
3.556641,5224.107,-8226.104,512
3.558594,5210.746,-8257.011,512
3.560547,5216.149,-8255.697,512
3.5625,5216.063,-8251.337,512
3.564453,5207.22,-8245.268,512
3.566406,5192.081,-8217.352,512
3.568359,5176.971,-8187.167,512
3.570312,5166.334,-8159.73,512
3.572266,5149.915,-8135.529,512
3.574219,5116.8,-8118.933,512
3.576172,5090.325,-8084.442,512
3.578125,5053.669,-8050.72,512
3.580078,5029.752,-8039.407,512
3.582031,5015.809,-8024.825,512
3.583984,5011.17,-8020.639,512
3.585938,5014.304,-8019.588,512
3.587891,5012.608,-8016.563,512
3.589844,5010.864,-8018.717,512
3.591797,5005.199,-8027.021,512
3.59375,5011.385,-8023.013,512
3.595703,5005.356,-8022.478,512
3.597656,5019.353,-7997.597,512
3.599609,5021.438,-7997.002,512
3.601562,5020.494,-7993.457,512
3.603516,5017.358,-7999.298,512
3.605469,5016.857,-7999.937,512
3.607422,5013.851,-7999.637,512
3.609375,5017.321,-8001.246,512
3.611328,5018.419,-7996.574,512
3.613281,5015.867,-7997.736,512
3.615234,5017.218,-7988.294,512
3.617188,5019.25,-7987.86,512
3.619141,5025.607,-7984.587,512
3.621094,5021.521,-7984.135,512
3.623047,5002.277,-8003.609,512
3.625,5014.299,-7996.662,512
3.626953,5020.363,-7991.861,512
3.628906,5020.903,-7995.738,512
3.630859,5009.658,-8002.069,512
3.632812,5014.834,-7996.499,512
3.634766,5002.099,-8010.729,512
3.636719,5003.079,-8013.742,512
3.638672,5005.789,-8012.158,512
3.640625,5011.698,-8011.667,512
3.642578,5018.37,-8011.004,512
3.644531,5024.211,-7996.518,512
3.646484,5023.924,-7994.296,512
3.648438,5015.386,-7997.564,512
3.650391,5017.311,-7993.096,512
3.652344,5022.615,-7990.524,512
3.654297,5028.382,-7984.089,512
3.65625,5029.145,-7979.77,512
3.658203,5029.726,-7985.723,512
3.660156,5036.416,-7981.022,512
3.662109,5027.093,-7984.854,512
3.664062,5023.407,-7990.417,512
3.666016,5027.712,-7986.706,512
3.667969,5020.296,-7992.855,512
3.669922,5026.264,-7986.667,512
3.671875,5023.489,-7992.708,512
3.673828,5009.301,-8002.927,512
3.675781,5006.333,-8010.064,512
3.677734,5021.135,-7995.612,512
3.679688,5015.01,-7992.789,512
3.681641,5007.083,-8004.54,512
3.683594,5016.958,-7995.791,512
3.685547,5014.818,-7994.4,512
3.6875,5011.365,-8002.307,512
3.689453,5016.096,-8003.56,512
3.691406,5016.738,-8001.69,512
3.693359,5019.446,-7997.206,512
3.695312,5013.578,-7995.199,512
3.697266,5018.324,-7996.949,512
3.699219,5024.844,-7992.869,512
3.701172,5018.739,-7994.895,512
3.703125,5023.825,-7990.583,512
3.705078,5015.395,-8001.573,512
3.707031,5017.727,-8000.787,512
3.708984,5020.9,-7991.975,512
3.710938,5016.399,-7992.983,512
3.712891,5020.934,-7986.412,512
3.714844,5020.254,-7982.564,512
3.716797,5023.902,-7979.838,512
3.71875,5025.955,-7981.652,512
3.720703,5016.75,-7992.266,512
3.722656,5018.313,-7992.061,512
3.724609,5024.176,-7984.987,512
3.726562,5021.577,-7989.381,512
3.728516,5020.798,-7991.977,512
3.730469,5033.267,-7978.289,512
3.732422,5037.917,-7974.592,512
3.734375,5039.255,-7977.437,512
3.736328,5038.649,-7981.471,512
3.738281,5037.106,-7982.651,512
3.740234,5036.943,-7982.547,512
3.742188,5033.471,-7987.113,512
3.744141,5041.788,-7976.633,512
3.746094,5042.289,-7986.87,512
3.748047,5036.671,-7991.655,512
3.75,5030.613,-8000.285,512
3.751953,5022.192,-8003.889,512
3.753906,5028.745,-7999.122,512
3.755859,5031.583,-7998.721,512
3.757812,5015.992,-8014.316,512
3.759766,5032.754,-7998.761,512
3.761719,5029.359,-8001.182,512
3.763672,5037.978,-7995.772,512
3.765625,5042.056,-7998.049,512
3.767578,5048.93,-7987.864,512
3.769531,5044.6,-7990.847,512
3.771484,5046.537,-7987.959,512
3.773438,5050.743,-7993.628,512
3.775391,5046.336,-7998.824,512
3.777344,5052.494,-7991.868,512
3.779297,5056.926,-7993.422,512
3.78125,5054.864,-7990.838,512
3.783203,5064.058,-7986.633,512
3.785156,5057.14,-7990.44,512
3.787109,5064.002,-7991.095,512
3.789062,5075.446,-7990.018,512
3.791016,5078.583,-7993.654,512
3.792969,5070.51,-8000.067,512
3.794922,5064.081,-7997.662,512
3.796875,5075.025,-7988.653,512
3.798828,5075.536,-7985.509,512
3.800781,5084.635,-7986.784,512
3.802734,5083.098,-7994.151,512
3.804688,5097.802,-7984.864,512
3.806641,5098.63,-7990.085,512
3.808594,5078.961,-8012.973,512
3.810547,5080.691,-8012.612,512
3.8125,5082.62,-8013.518,512
3.814453,5092.439,-8003.546,512
3.816406,5078.625,-8019.732,512
3.818359,5083.97,-8017.425,512
3.820312,5088.058,-8014.215,512
3.822266,5092.489,-8013.165,512
3.824219,5096.194,-8014.458,512
3.826172,5088.909,-8024.29,512
3.828125,5109.054,-8007.681,512
3.830078,5112.31,-8005.122,512
3.832031,5111.543,-8006.8,512
3.833984,5117.205,-8003.519,512
3.835938,5112.006,-8009.446,512
3.837891,5104.894,-8020.701,512
3.839844,5106.63,-8025.815,512
3.841797,5110.923,-8022.35,512
3.84375,5111.607,-8028.076,512
3.845703,5106.498,-8019.369,512
3.847656,5105.043,-8023.037,512
3.849609,5101.87,-8026.034,512
3.851562,5105.311,-8017.318,512
3.853516,5109.536,-8020.438,512
3.855469,5101.438,-8026.774,512
3.857422,5078.787,-8042.906,512
3.859375,5080.914,-8040.389,512
3.861328,5084.522,-8026.717,512
3.863281,5094.185,-8015.58,512
3.865234,5097.686,-8008.743,512
3.867188,5083.59,-8017.921,512
3.869141,5078.27,-8018.419,512
3.871094,5075.581,-8016.088,512
3.873047,5069.759,-8019.435,512
3.875,5068.76,-8016.897,512
3.876953,5069.071,-8014.427,512
3.878906,5070.514,-8006.563,512
3.880859,5070.544,-7997.437,512
3.882812,5067.188,-8009.297,512
3.884766,5063.845,-8006.192,512
3.886719,5050.333,-8018.609,512
3.888672,5047.754,-8018.686,512
3.890625,5044.085,-8018.734,512
3.892578,5043.937,-8016.727,512
3.894531,5054.264,-8009.326,512
3.896484,5056.373,-7996.54,512
3.898438,5042.415,-8001.526,512
3.900391,5036.974,-8007.668,512
3.902344,5026.919,-8013.646,512
3.904297,5033.582,-8009.706,512
3.90625,5027.889,-8009.706,512
3.908203,5023.198,-8015.466,512
3.910156,5019.494,-8022.781,512
3.912109,5021.576,-8016.982,512
3.914062,5020.698,-8010.788,512
3.916016,5018.374,-8011.811,512
3.917969,5012.968,-8019.943,512
3.919922,5016.194,-8019.034,512
3.921875,5010.75,-8027.857,512
3.923828,5004.454,-8029.227,512
3.925781,5006.196,-8024.663,512
3.927734,5017.487,-8022.112,512
3.929688,5012.591,-8025.3,512
3.931641,5004.208,-8028.573,512
3.933594,4999.679,-8033.637,512
3.935547,4995.972,-8037.92,512
3.9375,5001.454,-8035.353,512
3.939453,4997.165,-8028.082,512
3.941406,4983.879,-8038.176,512
3.943359,5004.57,-8030.117,512
3.945312,5002.885,-8036.567,512
3.947266,5002.641,-8038.919,512
3.949219,5018.555,-8019.608,512
3.951172,5014.847,-8020.147,512
3.953125,5023.071,-8013.976,512
3.955078,5012.306,-8023.173,512
3.957031,5006.954,-8029.339,512
3.958984,5013.248,-8025.207,512
3.960938,5014.039,-8017.706,512
3.962891,5016.727,-8018.082,512
3.964844,5024.857,-8009.264,512
3.966797,5027.67,-8009.255,512
3.96875,5021.546,-8009.95,512
3.970703,5021.146,-8005.675,512
3.972656,5027.085,-8010.061,512
3.974609,5008.905,-8032.24,512
3.976562,4989.062,-8053.813,512
3.978516,4995.456,-8041.862,512
3.980469,5004.822,-8028.938,512
3.982422,5011.387,-8029.782,512
3.984375,4993.801,-8049.178,512
3.986328,5006.616,-8037.259,512
3.988281,5007.641,-8034.759,512
3.990234,5007.961,-8032.635,512
3.992188,5014.192,-8034.819,512
3.994141,5028.215,-8019.01,512
3.996094,5018.404,-8027.562,512
3.998047,5030.756,-8015.038,512
4,5023.295,-8022.507,512
4.001953,5024.545,-8021.276,512
4.003906,5025.948,-8025.746,512
4.005859,5017.279,-8032.556,512
4.007812,5021.957,-8022.914,512
4.009766,5026.274,-8023.897,512
4.011719,5023.875,-8027.838,512
4.013672,5027.7,-8016.992,512
4.015625,5033.758,-8007.585,512
4.017578,5031.917,-8009.272,512
4.019531,5035.217,-8012.843,512
4.021484,5033.024,-8012.714,512
4.023438,5036.285,-8016.575,512
4.025391,5037.664,-8018.679,512
4.027344,5022.68,-8026.12,512
4.029297,5029.145,-8018.718,512
4.03125,5030.157,-8013.636,512
4.033203,5022.333,-8016.777,512
4.035156,5029.333,-8014.782,512
4.037109,5025.735,-8016.479,512
4.039062,5029.711,-8018.943,512
4.041016,5025.961,-8029.565,512
4.042969,5026.73,-8026.967,512
4.044922,5031.921,-8014.554,512
4.046875,5039.888,-8015.823,512
4.048828,5038.443,-8009.96,512
4.050781,5019.887,-8013.478,512
4.052734,5031.066,-8010.892,512
4.054688,5032.36,-8011.839,512
4.056641,5036.005,-8007.032,512
4.058594,5037.695,-8003.19,512
4.060547,5036.484,-8006.541,512
4.0625,5038.123,-8001.163,512
4.064453,5037.489,-8004.308,512
4.066406,5034.973,-8002.517,512
4.068359,5042.163,-7994.109,512
4.070312,5044.048,-7987.099,512
4.072266,5039.1,-7998.737,512
4.074219,5036.34,-8002.911,512
4.076172,5028.552,-8017.462,512
4.078125,5042.714,-8003.948,512
4.080078,5035.717,-8009.484,512
4.082031,5026.979,-8016.286,512
4.083984,5026.129,-8017.681,512
4.085938,5029.877,-8009.839,512
4.087891,5021.679,-8010.976,512
4.089844,5014.042,-8023.975,512
4.091797,5014.014,-8025.389,512
4.09375,5018.339,-8025.129,512
4.095703,5014.181,-8026.811,512
4.097656,5006.423,-8030.77,512
4.099609,5015.883,-8017.792,512
4.101562,5020.383,-8017.885,512
4.103516,5016.718,-8024.391,512
4.105469,5014.723,-8022.114,512
4.107422,5019.745,-8022.502,512
4.109375,5038.274,-8007.632,512
4.111328,5017.844,-8017.875,512
4.113281,5005.879,-8025.391,512
4.115234,5019.234,-8007.765,512
4.117188,5019.211,-8011.093,512
4.119141,5011.067,-8019.104,512
4.121094,5021.068,-8015.091,512
4.123047,5011.496,-8024.862,512
4.125,5009.467,-8024.568,512
4.126953,5009.906,-8028.37,512
4.128906,5012.081,-8026.492,512
4.130859,5023.789,-8018.715,512
4.132812,5030.504,-8011.932,512
4.134766,5026.26,-8008.084,512
4.136719,5018.261,-8011.37,512
4.138672,5013.938,-8010.031,512
4.140625,5018.179,-8014.507,512
4.142578,5011.604,-8017.662,512
4.144531,5011.856,-8015.304,512
4.146484,5029.006,-7996.378,512
4.148438,5017.689,-8010.956,512
4.150391,5020.037,-8008.41,512
4.152344,5017.267,-8006.391,512
4.154297,5009.525,-8015.622,512
4.15625,5012.919,-8016.01,512
4.158203,5016.094,-8017.836,512
4.160156,5023.581,-8007.76,512
4.162109,5017.039,-8007.995,512
4.164062,5029.364,-7998.457,512
4.166016,5037.291,-7990.834,512
4.167969,5015.601,-8014.189,512
4.169922,5013.139,-8015.363,512
4.171875,5021.056,-8008.307,512
4.173828,5026.832,-8008.634,512
4.175781,5021.479,-8012.023,512
4.177734,5015.953,-8018.043,512
4.179688,5027.159,-8004.578,512
4.181641,5021.965,-8006.438,512
4.183594,5024.893,-8001.659,512
4.185547,5020.484,-8010.13,512
4.1875,5024.666,-8006.677,512
4.189453,5015.963,-8011.156,512
4.191406,5009.307,-8021.929,512
4.193359,5022.614,-8011.157,512
4.195312,5008,-8018.264,512
4.197266,5027.896,-8000.099,512
4.199219,5023.292,-8000.137,512
4.201172,5027.018,-8003.587,512
4.203125,5021.292,-8006.166,512
4.205078,5018.742,-8004.862,512
4.207031,5026.949,-7997.768,512
4.208984,5010.59,-8002.172,512
4.210938,5017.052,-8001.894,512
4.212891,5016.837,-7996.063,512
4.214844,5020.952,-7995.883,512
4.216797,5019.261,-7997.691,512
4.21875,5019.375,-7993.05,512
4.220703,5020.458,-7999.622,512
4.222656,5013.332,-8009.576,512
4.224609,5009.009,-8011.336,512
4.226562,5020.692,-8003.881,512
4.228516,5012.305,-8012.541,512
4.230469,5018.417,-7998.472,512
4.232422,5021.079,-7996.93,512
4.234375,5017.994,-8000.347,512
4.236328,5014.102,-8005.965,512
4.238281,5018.337,-8002.752,512
4.240234,5012.558,-8013.024,512
4.242188,5015.42,-8002.803,512
4.244141,5020.972,-7991.908,512
4.246094,5008.719,-8000.052,512
4.248047,5016.038,-7989.336,512
4.25,5020.3,-7988.137,512
4.251953,5016.625,-7991.284,512
4.253906,5009.216,-7997.537,512
4.255859,5011.932,-8000.182,512
4.257812,5012.216,-7997.398,512
4.259766,5015.288,-7998.333,512
4.261719,5026.771,-7985.134,512
4.263672,5017.868,-7991.227,512
4.265625,5014.265,-7996.539,512
4.267578,5020.521,-7989.478,512
4.269531,5020.988,-7992.011,512
4.271484,5015.967,-7998.734,512
4.273438,5009.598,-8001.505,512
4.275391,5011.195,-7999.073,512
4.277344,5015.173,-8003.616,512
4.279297,5023.361,-7998.495,512
4.28125,5020.882,-7998.561,512
4.283203,5019.098,-8000.769,512
4.285156,5014.579,-8001.865,512
4.287109,5006.214,-8011.075,512
4.289062,5009.771,-8008.677,512
4.291016,5001.346,-8017.988,512
4.292969,5003.381,-8014.351,512
4.294922,5002.821,-8014.328,512
4.296875,4999.676,-8011.425,512
4.298828,5003.692,-8008.285,512
4.300781,5003.675,-8007.364,512
4.302734,5002.497,-8005.894,512
4.304688,5008.632,-8005.404,512
4.306641,5017.332,-7998.6,512
4.308594,5008.847,-8001.88,512
4.310547,5011.278,-7995.883,512
4.3125,5015.843,-7998.57,512
4.314453,5015.608,-7993.819,512
4.316406,5021.515,-7990.977,512
4.318359,5024.654,-7987.622,512
4.320312,5014.219,-7992.897,512
4.322266,5018.285,-7993.71,512
4.324219,5034.836,-7982.349,512
4.326172,5018.606,-7998.17,512
4.328125,5010.354,-8002.098,512
4.330078,5022.48,-7993.323,512
4.332031,5017.532,-7993.02,512
4.333984,5012.229,-7995.73,512
4.335938,5019.992,-7992.007,512
4.337891,5023.808,-7986.339,512
4.339844,5026.55,-7987.371,512
4.341797,5022.848,-7994.178,512
4.34375,5021.406,-7997.77,512
4.345703,5033.429,-7981.817,512
4.347656,5033.733,-7980.503,512
4.349609,5031.837,-7978.246,512
4.351562,5026.626,-7983.508,512
4.353516,5021.61,-7989.866,512
4.355469,5029.719,-7986.395,512
4.357422,5020.373,-7995.625,512
4.359375,5018.47,-7998.86,512
4.361328,5009.55,-7999.165,512
4.363281,5011.236,-8001.656,512
4.365234,5008.937,-8003.544,512
4.367188,5007.606,-8001.211,512
4.369141,5015.104,-7998.335,512
4.371094,5011.475,-8006.015,512
4.373047,5016.806,-8007.225,512
4.375,5016.238,-8013.527,512
4.376953,5030.094,-8012.05,512
4.378906,5034.146,-8009.323,512
4.380859,5030.057,-8003.927,512
4.382812,5026.933,-8005.557,512
4.384766,5033.662,-8000.384,512
4.386719,5038.577,-7997.374,512
4.388672,5039.459,-8001.331,512
4.390625,5045.723,-8002.944,512
4.392578,5052.676,-8007.227,512
4.394531,5058.261,-8012.656,512
4.396484,5054.407,-8021.06,512
4.398438,5058.896,-8016.746,512
4.400391,5068.73,-8008.423,512
4.402344,5067.772,-8003.916,512
4.404297,5051.044,-8012.632,512
4.40625,5042.813,-8013.841,512
4.408203,5040.6,-8009.871,512
4.410156,5042.079,-7999.524,512
4.412109,5042.612,-7995.513,512
4.414062,5044.019,-7988.535,512
4.416016,5053.657,-7975.918,512
4.417969,5044.568,-7979.979,512
4.419922,5033.233,-7987.056,512
4.421875,5030.225,-7988.929,512
4.423828,5030.446,-7985.659,512
4.425781,5035.369,-7978.989,512
4.427734,5035.055,-7980.117,512
4.429688,5034.804,-7983.396,512
4.431641,5024.898,-7991.66,512
4.433594,5008.782,-7998.111,512
4.435547,5010.354,-7980.943,512
4.4375,5006.635,-7976.942,512
4.439453,4999.356,-7974.111,512
4.441406,4994.184,-7980.194,512
4.443359,4997.048,-7978.832,512
4.445312,4998.169,-7976.891,512
4.447266,4999.138,-7974.956,512
4.449219,5002.124,-7969.694,512
4.451172,5003.859,-7966.937,512
4.453125,4997.313,-7974.466,512
4.455078,5002.622,-7971.07,512
4.457031,5008.682,-7964.597,512
4.458984,5004.421,-7968.347,512
4.460938,4994.8,-7978.901,512
4.462891,4997.259,-7973.239,512
4.464844,5001.629,-7966.677,512
4.466797,4998.312,-7968.774,512
4.46875,4996.995,-7974.192,512
4.470703,5002.106,-7973.731,512
4.472656,4998.53,-7976.652,512
4.474609,5005.933,-7973.816,512
4.476562,5008.209,-7980.036,512
4.478516,5006.056,-7980.052,512
4.480469,4998.337,-7975.984,512
4.482422,4993.982,-7983.985,512
4.484375,5004.919,-7970.419,512
4.486328,5000.736,-7969.991,512
4.488281,4988.669,-7990.832,512
4.490234,4991.219,-7986.09,512
4.492188,4996.446,-7981.042,512
4.494141,4989.281,-7985.352,512
4.496094,4993.221,-7979.55,512
4.498047,4996.596,-7974.779,512
4.5,5001.617,-7969.296,512
4.501953,5005.771,-7965.833,512
4.503906,5001.668,-7965.549,512
4.505859,4999.629,-7970.42,512
4.507812,4991.208,-7974.777,512
4.509766,5000.577,-7965.347,512
4.511719,5001.999,-7970.001,512
4.513672,5004.731,-7964.94,512
4.515625,5000.998,-7966.37,512
4.517578,4991.844,-7964.447,512
4.519531,4987.478,-7972.496,512
4.521484,4985.17,-7983.001,512
4.523438,4985.63,-7985.246,512
4.525391,4989.494,-7987.634,512
4.527344,4989.237,-7992.763,512
4.529297,4986.962,-7995.513,512
4.53125,4996.126,-7983.528,512
4.533203,5005.181,-7973.988,512
4.535156,5002.44,-7976.477,512
4.537109,5009.15,-7971.872,512
4.539062,5017.031,-7970.576,512
4.541016,5018.046,-7970.901,512
4.542969,5019.911,-7964.191,512
4.544922,5016.495,-7966.856,512
4.546875,5017.243,-7967.885,512
4.548828,5024.582,-7979.594,512
4.550781,5039.597,-7988.857,512
4.552734,5048.688,-8020.069,512
4.554688,5045.406,-8064.875,512
4.556641,5080.375,-8093.93,512
4.558594,5115.873,-8120.7,512
4.560547,5159.37,-8131.337,512
4.5625,5190.813,-8167.319,512
4.564453,5193.952,-8205.466,512
4.566406,5217.08,-8213.793,512
4.568359,5224.957,-8229.309,512
4.570312,5223.044,-8237.227,512
4.572266,5211.244,-8247.688,512
4.574219,5196.798,-8251.416,512
4.576172,5176.479,-8231.301,512
4.578125,5164.18,-8202.977,512
4.580078,5141.501,-8178.403,512
4.582031,5139.264,-8140.071,512
4.583984,5120.155,-8115.239,512
4.585938,5088.231,-8090.059,512
4.587891,5049.219,-8056.031,512
4.589844,5018.925,-8039.437,512
4.591797,5008.332,-8026.982,512
4.59375,5007.563,-8011.332,512
4.595703,5017.957,-7996.356,512
4.597656,5016.744,-7986.693,512
4.599609,5013.121,-7984.458,512
4.601562,5015.144,-7983.159,512
4.603516,5013.837,-7985.228,512
4.605469,5015.857,-7988.135,512
4.607422,5035.777,-7966.018,512
4.609375,5027.599,-7971.064,512
4.611328,5016.5,-7983.488,512
4.613281,5025.641,-7971.1,512
4.615234,5018.682,-7971.98,512
4.617188,5021.051,-7968.199,512
4.619141,5027.605,-7960.955,512
4.621094,5025.745,-7962.524,512
4.623047,5025.426,-7966.599,512
4.625,5031.409,-7963.532,512
4.626953,5022.085,-7972.585,512
4.628906,5021.833,-7965.613,512
4.630859,5022.183,-7970.085,512
4.632812,5014.356,-7974.753,512
4.634766,5015.205,-7976.545,512
4.636719,5028.193,-7964.027,512
4.638672,5032.217,-7961.968,512
4.640625,5019.409,-7977.656,512
4.642578,5020.207,-7977.397,512
4.644531,5013.699,-7981.444,512
4.646484,5017.136,-7979.376,512
4.648438,5019.598,-7977.496,512
4.650391,5020.364,-7969.058,512
4.652344,5021.353,-7971.686,512
4.654297,5012.573,-7987.998,512
4.65625,5015.925,-7982.862,512
4.658203,5021.205,-7983.36,512
4.660156,5019.879,-7984.067,512
4.662109,5020.414,-7983.284,512
4.664062,5013.196,-7988.167,512
4.666016,5009.251,-7986.318,512
4.667969,5029.726,-7970.549,512
4.669922,5020.907,-7975.665,512
4.671875,5011.846,-7984.044,512
4.673828,5007.549,-7990.795,512
4.675781,5014.959,-7985.729,512
4.677734,5019.867,-7987.438,512
4.679688,5025.061,-7987.54,512
4.681641,5017.186,-7991.227,512
4.683594,5021.142,-7978.838,512
4.685547,5024.22,-7967.933,512
4.6875,5019.162,-7976.51,512
4.689453,5025.38,-7973.691,512
4.691406,5024.112,-7975.367,512
4.693359,5026.184,-7975.326,512
4.695312,5028.63,-7970.925,512
4.697266,5032.176,-7961.781,512
4.699219,5031.522,-7958.091,512
4.701172,5034.23,-7957.465,512
4.703125,5035.023,-7965.849,512
4.705078,5031.58,-7975.559,512
4.707031,5033.532,-7981.443,512
4.708984,5031.302,-7979.218,512
4.710938,5023.945,-7977.175,512
4.712891,5014.048,-7981.318,512
4.714844,5019.531,-7973.041,512
4.716797,5028.186,-7969.77,512
4.71875,5035.98,-7967.173,512
4.720703,5023.78,-7981.186,512
4.722656,5026.396,-7979.442,512
4.724609,5027.885,-7978.934,512
4.726562,5030.316,-7976.769,512
4.728516,5030.51,-7976.857,512
4.730469,5022.062,-7985.552,512
4.732422,5018.798,-7986.9,512
4.734375,5030.116,-7975.917,512
4.736328,5019.639,-7987.057,512
4.738281,5024.837,-7986.176,512
4.740234,5048.744,-7963.186,512
4.742188,5037.738,-7973.874,512
4.744141,5027.916,-7978.561,512
4.746094,5038.186,-7977.373,512
4.748047,5030.461,-7986.753,512
4.75,5040.394,-7971.471,512
4.751953,5037.323,-7980.083,512
4.753906,5034.634,-7982.172,512
4.755859,5033.463,-7988.32,512
4.757812,5036.905,-7992.302,512
4.759766,5031.11,-7995.756,512
4.761719,5041.018,-7987.167,512
4.763672,5037.653,-7985.834,512
4.765625,5033.867,-7992,512
4.767578,5039.153,-7990.46,512
4.769531,5040.14,-7982.492,512
4.771484,5027.206,-8000.934,512
4.773438,5031.159,-7998.341,512
4.775391,5032.5,-7998.499,512
4.777344,5038.152,-7998.625,512
4.779297,5046.951,-7989.489,512
4.78125,5048.529,-7989.717,512
4.783203,5050.5,-7991.611,512
4.785156,5060.851,-7985.561,512
4.787109,5064.437,-7988.062,512
4.789062,5064.377,-7992.753,512
4.791016,5064.006,-7991.561,512
4.792969,5058.212,-7995.367,512
4.794922,5063.581,-7988.475,512
4.796875,5063.822,-7989.463,512
4.798828,5063.494,-7986.878,512
4.800781,5065.081,-7991.65,512
4.802734,5066.014,-7990.754,512
4.804688,5072.732,-7987.833,512
4.806641,5066.226,-8002.782,512
4.808594,5066.138,-8011.85,512
4.810547,5070.2,-8016.207,512
4.8125,5068.344,-8016.195,512
4.814453,5069.28,-8014.652,512
4.816406,5078.749,-8007.571,512
4.818359,5080.87,-8006.165,512
4.820312,5084.463,-8010.095,512
4.822266,5079.457,-8019.46,512
4.824219,5088.571,-8017.113,512
4.826172,5096.368,-8010.926,512
4.828125,5099.305,-8003.229,512
4.830078,5098.805,-8007.368,512
4.832031,5110.244,-7994.84,512
4.833984,5102.262,-8003.192,512
4.835938,5102.062,-8005.114,512
4.837891,5102.288,-8012.573,512
4.839844,5105.243,-8009.849,512
4.841797,5102.583,-8013.073,512
4.84375,5101.194,-8015.064,512
4.845703,5109.907,-8010.14,512
4.847656,5114.41,-8000.671,512
4.849609,5109.646,-8011.374,512
4.851562,5098.965,-8024.154,512
4.853516,5101.471,-8027.922,512
4.855469,5106.396,-8026.599,512
4.857422,5100.217,-8029.841,512
4.859375,5104.687,-8029.905,512
4.861328,5115.7,-8023.107,512
4.863281,5121.88,-8014.725,512
4.865234,5113.935,-8021.743,512
4.867188,5122.417,-8007.926,512
4.869141,5115.425,-8009.043,512
4.871094,5099.168,-8019.266,512
4.873047,5089.625,-8029.866,512
4.875,5093.468,-8023.299,512
4.876953,5100.301,-8006.186,512
4.878906,5095.302,-8009.072,512
4.880859,5083.887,-8010.155,512
4.882812,5072.514,-8011.423,512
4.884766,5073.925,-8006.8,512
4.886719,5061.694,-8012.691,512
4.888672,5051.54,-8020.955,512
4.890625,5047.357,-8018.872,512
4.892578,5053.674,-8012.165,512
4.894531,5055.555,-8003.152,512
4.896484,5047.706,-8004.988,512
4.898438,5044.565,-8006.391,512
4.900391,5035.578,-8009.028,512
4.902344,5027.298,-8015.25,512
4.904297,5031.099,-8002.384,512
4.90625,5030.313,-8002.806,512
4.908203,5008.782,-8019.31,512
4.910156,5011.537,-8012.288,512
4.912109,5014.418,-8008.672,512
4.914062,5021.938,-7999.608,512
4.916016,5020.652,-7996.985,512
4.917969,5008.723,-8005.265,512
4.919922,5022.983,-7997.957,512
4.921875,5026.075,-7994.052,512
4.923828,5011.81,-8011.041,512
4.925781,5011.387,-8016.324,512
4.927734,5013.025,-8003.527,512
4.929688,5010.06,-8009.207,512
4.931641,5006.735,-8009.008,512
4.933594,5000.191,-8008.016,512
4.935547,5011.126,-7998.333,512
4.9375,4999.459,-8007.719,512
4.939453,4994.716,-8012.165,512
4.941406,4994.873,-8012.782,512
4.943359,4999.345,-8009.417,512
4.945312,4999.058,-8013.377,512
4.947266,5004.343,-8003.934,512
4.949219,5007.088,-7999.257,512
4.951172,4993.933,-8012.931,512
4.953125,5000.227,-8006.732,512
4.955078,5003.115,-8009.971,512
4.957031,5000.648,-8008.735,512
4.958984,4990.038,-8016.918,512
4.960938,5002.232,-8006.899,512
4.962891,5004.453,-8004.731,512
4.964844,5006.235,-8004.801,512
4.966797,5009.29,-7998.349,512
4.96875,5009.5,-7994.384,512
4.970703,5007.916,-8001.009,512
4.972656,5001.207,-8013.059,512
4.974609,4993.924,-8011.604,512
4.976562,4988.085,-8019.342,512
4.978516,5002.647,-8011.864,512
4.980469,5003.076,-8006.964,512
4.982422,5000.547,-8006.582,512
4.984375,5006.716,-7998.266,512
4.986328,4996.169,-8006.802,512
4.988281,5000.653,-8007.228,512
4.990234,4998.033,-8009.466,512
4.992188,4990.085,-8013.039,512
4.994141,5003.961,-8000.708,512
4.996094,5007.574,-7995.479,512
4.998047,5001.799,-8001.467,512
5,5016.725,-7983.415,512
5.001953,5031.26,-7976.809,512
5.003906,5007.866,-8002.482,512
5.005859,5002.553,-8004.861,512
5.007812,5011.652,-7993.38,512
5.009766,5006.841,-8000.918,512
5.011719,5017.142,-7992.183,512
5.013672,5015.931,-7991.908,512
5.015625,5016.686,-7988.506,512
5.017578,5022.777,-7987.337,512
5.019531,5026.119,-7984.511,512
5.021484,5014.489,-7993.889,512
5.023438,5002.618,-8003.903,512
5.025391,5004.815,-8001.181,512
5.027344,5022.128,-7990.741,512
5.029297,5021.517,-7988.569,512
5.03125,5014.657,-7985.73,512
5.033203,5016.622,-7981.442,512
5.035156,5013.806,-7983.214,512
5.037109,5022.906,-7982,512
5.039062,5019.806,-7987.145,512
5.041016,5006.97,-8000.295,512
5.042969,5005.859,-7996.832,512
5.044922,5005.876,-7994.783,512
5.046875,5011.311,-7990.241,512
5.048828,5009.51,-7992.301,512
5.050781,5011.351,-7990.737,512
5.052734,5015.845,-7985.449,512
5.054688,5019.873,-7991.344,512
5.056641,5019.049,-7993.908,512
5.058594,5022.22,-7984.396,512
5.060547,5027.554,-7982.546,512
5.0625,5024.233,-7984.004,512
5.064453,5024.324,-7978.941,512
5.066406,5020.039,-7985.316,512
5.068359,5011.363,-7990.228,512
5.070312,5006.564,-8000.633,512
5.072266,5015.168,-7993.26,512
5.074219,5022.223,-7988.257,512
5.076172,5014.51,-7997.758,512
5.078125,5006.716,-8001.549,512
5.080078,5012.672,-7999.315,512
5.082031,5020.193,-7987.823,512
5.083984,5015.365,-7987.138,512
5.085938,5014.846,-7993.135,512
5.087891,5009.159,-8002.566,512
5.089844,5020.18,-7993.337,512
5.091797,5009.842,-8005.23,512
5.09375,5013.08,-8003.511,512
5.095703,5013.209,-8000.147,512
5.097656,5019.136,-7998.401,512
5.099609,5024.524,-7992.509,512
5.101562,5024.485,-7985.938,512
5.103516,5029.207,-7983.461,512
5.105469,5012.207,-8002.457,512
5.107422,5018.977,-7995.707,512
5.109375,5011.38,-8001.588,512
5.111328,5015.487,-7997.683,512
5.113281,5025.064,-7987.396,512
5.115234,5019.878,-7989.384,512
5.117188,5016.952,-7989.731,512
5.119141,5019.25,-7989.595,512
5.121094,5016.694,-7991.948,512
5.123047,5019.142,-7990.191,512
5.125,5005.682,-7999.293,512
5.126953,5007.277,-7998.478,512
5.128906,5016.968,-7993.756,512
5.130859,5022.81,-7987.867,512
5.132812,5021.137,-7987.996,512
5.134766,5015.015,-7990.988,512
5.136719,5027.326,-7978.659,512
5.138672,5031.831,-7980.338,512
5.140625,5026.721,-7988.907,512
5.142578,5024.4,-7988.761,512
5.144531,5024.734,-7981.694,512
5.146484,5014.45,-7987.973,512
5.148438,5010.936,-7986.33,512
5.150391,5016.253,-7980.342,512
5.152344,5017.729,-7984.533,512
5.154297,5012.646,-7986.314,512
5.15625,5017.417,-7979.745,512
5.158203,5011.561,-7985.719,512
5.160156,5000.926,-7997.362,512
5.162109,5018.328,-7983.266,512
5.164062,5030.108,-7969.341,512
5.166016,5029.764,-7977.833,512
5.167969,5021.264,-7987.143,512
5.169922,5023.664,-7987.071,512
5.171875,5017.634,-7993.259,512
5.173828,5022.89,-7987.576,512
5.175781,5020.449,-7987.206,512
5.177734,5031.445,-7985.432,512
5.179688,5033.884,-7975.51,512
5.181641,5029.742,-7974.207,512
5.183594,5037.327,-7967.974,512
5.185547,5027.952,-7975.151,512
5.1875,5039.35,-7970.966,512
5.189453,5035.752,-7976.318,512
5.191406,5046.191,-7968.266,512
5.193359,5030.089,-7971.31,512
5.195312,5023.715,-7979.771,512
5.197266,5031.16,-7977.786,512
5.199219,5026.809,-7982.45,512
5.201172,5027.621,-7985.965,512
5.203125,5018.789,-7994.75,512
5.205078,5015.766,-8001.36,512
5.207031,5009.036,-8007.095,512
5.208984,5011.786,-7993.904,512
5.210938,5012.509,-7995.441,512
5.212891,5020.477,-7995.84,512
5.214844,5031.97,-7985.799,512
5.216797,5030.978,-7983.262,512
5.21875,5021.38,-7991.567,512
5.220703,5020.469,-7994.552,512
5.222656,5011.685,-7997.932,512
5.224609,5027.293,-7987.558,512
5.226562,5022.652,-7986.534,512
5.228516,5031.476,-7979.542,512
5.230469,5026.467,-7982.248,512
5.232422,5021.763,-7979.135,512
5.234375,5036.654,-7971.375,512
5.236328,5029.517,-7976.967,512
5.238281,5030.331,-7973.486,512
5.240234,5025.814,-7980.093,512
5.242188,5011.561,-7999.25,512
5.244141,5003.914,-8003.078,512
5.246094,5005.882,-8002.146,512
5.248047,5014.369,-7993.254,512
5.25,5015.938,-7992.295,512
5.251953,5017.456,-7995.649,512
5.253906,5008.938,-8004.625,512
5.255859,5012.461,-8005.159,512
5.257812,5016.847,-8001.049,512
5.259766,5011.438,-8004.225,512
5.261719,5014.546,-7996.088,512
5.263672,5017.736,-7990.75,512
5.265625,5017.326,-7989.029,512
5.267578,5010.319,-7990.021,512
5.269531,5013.668,-7992.515,512
5.271484,5018.27,-7991.098,512
5.273438,5015.749,-7996.108,512
5.275391,5013.962,-8001.08,512
5.277344,5023.377,-7996.986,512
5.279297,5030.475,-7988.188,512
5.28125,5022.983,-7992.448,512
5.283203,5022.357,-7988.667,512
5.285156,5019.164,-7986.932,512
5.287109,5017.101,-7990.932,512
5.289062,5006.917,-8016.521,512
5.291016,5002.712,-8008.736,512
5.292969,5004.706,-7998.487,512
5.294922,5005.068,-8003.298,512
5.296875,5002.539,-8006.238,512
5.298828,5009.304,-7998.548,512
5.300781,5014.878,-7996.37,512
5.302734,5013.84,-7993.733,512
5.304688,4985.348,-8015.466,512
5.306641,4989.511,-8015.299,512
5.308594,4991.086,-8016.681,512
5.310547,5002.315,-8005.699,512
5.3125,5017.186,-7993.818,512
5.314453,5010,-7997.937,512
5.316406,5012.018,-7998.682,512
5.318359,5017.923,-7998.941,512
5.320312,5022.725,-7989.592,512
5.322266,5025.732,-7987.525,512
5.324219,5029.708,-7989.569,512
5.326172,5016.485,-7992.728,512
5.328125,5005.256,-7995.722,512
5.330078,5020.52,-7982.219,512
5.332031,5017.104,-7987.779,512
5.333984,5021.241,-7981.375,512
5.335938,5016.958,-7986.364,512
5.337891,5017.624,-7988.353,512
5.339844,5008.691,-7995.471,512
5.341797,5020.508,-7991.501,512
5.34375,5016.371,-7994.453,512
5.345703,5008.762,-8001.996,512
5.347656,5012.439,-8001.675,512
5.349609,5011.55,-7998.182,512
5.351562,5001.168,-8011.676,512
5.353516,5014.941,-7995.243,512
5.355469,5004.383,-8009.27,512
5.357422,4998.108,-8020.995,512
5.359375,5028.049,-7993.578,512
5.361328,5030.972,-7997.546,512
5.363281,5025.48,-8002.562,512
5.365234,5026.706,-8002.106,512
5.367188,5025.708,-7998.051,512
5.369141,5031.214,-7993.386,512
5.371094,5034.151,-7991.115,512
5.373047,5044.901,-7995.159,512
5.375,5044.654,-8006.478,512
5.376953,5058.855,-8009.521,512
5.378906,5059.675,-8017.861,512
5.380859,5066.429,-8011.309,512
5.382812,5062.298,-8017.393,512
5.384766,5062.484,-8011.497,512
5.386719,5057.496,-8016.409,512
5.388672,5037.715,-8016.974,512
5.390625,5049.659,-8001.484,512
5.392578,5052.266,-7995.878,512
5.394531,5053.525,-7984.432,512
5.396484,5047.372,-7989.314,512
5.398438,5034.492,-7998.417,512
5.400391,5045.474,-7985.215,512
5.402344,5039.12,-7998.713,512
5.404297,5041.218,-7992.315,512
5.40625,5030.313,-8001.196,512
5.408203,5022.741,-8006.776,512
5.410156,5021.623,-8004.84,512
5.412109,5032.057,-7996.52,512
5.414062,5033.093,-7993.146,512
5.416016,5021.774,-8006.88,512
5.417969,5033.235,-7985.107,512
5.419922,5020.688,-7980.989,512
5.421875,5019.217,-7978.577,512
5.423828,5004.398,-7996.185,512
5.425781,5003.452,-7994.319,512
5.427734,5004.616,-7997.474,512
5.429688,5001.621,-8000.297,512
5.431641,5014.64,-7986.844,512
5.433594,5002.277,-7998.681,512
5.435547,5007.824,-7991.856,512
5.4375,5009.322,-8000.889,512
5.439453,5009.434,-7999.204,512
5.441406,4992.127,-8013.974,512
5.443359,4991.354,-8013.625,512
5.445312,4988.935,-8008.838,512
5.447266,4984.197,-8021.881,512
5.449219,4982.096,-8018.059,512
5.451172,4981.5,-8006.837,512
5.453125,4994.057,-8005.667,512
5.455078,4983.125,-8016.359,512
5.457031,4984.492,-8014.828,512
5.458984,4981.902,-8020.723,512
5.460938,4978.063,-8019.137,512
5.462891,4983.143,-8008.644,512
5.464844,4984.874,-8003.908,512
5.466797,4977.167,-8008.641,512
5.46875,4979.707,-8010.649,512
5.470703,4986.85,-8003.333,512
5.472656,4979.801,-8008.012,512
5.474609,4986.985,-8004.406,512
5.476562,4989.18,-7995.817,512
5.478516,4995.689,-7997.985,512
5.480469,4990.087,-8009.001,512
5.482422,4986.642,-7997.827,512
5.484375,4988.821,-8000.124,512
5.486328,4992.438,-8001.524,512
5.488281,4998.667,-8003.706,512
5.490234,4996.91,-7998.434,512
5.492188,5000.32,-7995.396,512
5.494141,5003.016,-7992.405,512
5.496094,4994.766,-8000.809,512
5.498047,4998.018,-8003.194,512
5.5,4993.265,-8009.063,512
5.501953,4989.485,-8002.856,512
5.503906,4995.978,-8007.651,512
5.505859,4993.461,-8013.774,512
5.507812,4999.988,-8003.764,512
5.509766,5001.146,-8003.624,512
5.511719,5001.836,-8005.094,512
5.513672,5011.129,-8000.893,512
5.515625,5000.661,-8008.405,512
5.517578,5000.056,-8003.899,512
5.519531,5009.837,-8001.979,512
5.521484,5005.466,-8007.56,512
5.523438,5016.551,-7997.003,512
5.525391,5027.667,-7998.162,512
5.527344,5018.091,-8010.877,512
5.529297,5034.091,-8007.196,512
5.53125,5046.117,-8012.126,512
5.533203,5062.257,-8025.087,512
5.535156,5074.319,-8039.527,512
5.537109,5094.452,-8061.179,512
5.539062,5130.847,-8077.645,512
5.541016,5153.048,-8115.715,512
5.542969,5189.423,-8133.063,512
5.544922,5211.349,-8162.62,512
5.546875,5222.84,-8174.684,512
5.548828,5218.142,-8183.257,512
5.550781,5187.597,-8202.469,512
5.552734,5178.064,-8206.951,512
5.554688,5168.557,-8209.531,512
5.556641,5143.371,-8190.128,512
5.558594,5135.876,-8155.228,512
5.560547,5122.521,-8138.481,512
5.5625,5104.356,-8120.125,512
5.564453,5097.927,-8089.497,512
5.566406,5074.193,-8054.042,512
5.568359,5044.164,-8018.997,512
5.570312,5016.46,-8008.249,512
5.572266,5007.823,-8005.13,512
5.574219,5006.93,-8005.987,512
5.576172,5003.241,-8000.659,512
5.578125,5009.318,-7993.697,512
5.580078,5013.608,-7985.124,512
5.582031,5015.475,-7984.327,512
5.583984,5015.277,-7986.441,512
5.585938,5026.15,-7979.971,512
5.587891,5023.416,-7983.535,512
5.589844,5017.092,-7984.753,512
5.591797,5018.475,-7982.998,512
5.59375,5023.255,-7982.549,512
5.595703,5023.68,-7980.119,512
5.597656,5026.496,-7975.117,512
5.599609,5013.176,-7985.593,512
5.601562,5011.484,-7985.333,512
5.603516,5004.854,-7993.036,512
5.605469,5011.799,-7991.009,512
5.607422,5004.424,-7995.505,512
5.609375,5008.006,-8001.129,512
5.611328,5011.113,-7991.489,512
5.613281,5007.381,-7993.024,512
5.615234,5013.031,-7988.049,512
5.617188,5009.367,-7992.86,512
5.619141,4998.979,-7996.006,512
5.621094,5005.276,-7989.631,512
5.623047,5011.304,-7991.012,512
5.625,5006.193,-7995.186,512
5.626953,5009.721,-7999.238,512
5.628906,5013.042,-7990.322,512
5.630859,5019.187,-7982.152,512
5.632812,5023.723,-7976.996,512
5.634766,5025.181,-7978.225,512
5.636719,5030.642,-7978.566,512
5.638672,5023.133,-7983.095,512
5.640625,5018.048,-7989.966,512
5.642578,5033.493,-7977.734,512
5.644531,5039.098,-7971.407,512
5.646484,5037.68,-7965.578,512
5.648438,5032.821,-7983.193,512
5.650391,5033.194,-7974.767,512
5.652344,5034.683,-7961.221,512
5.654297,5043.222,-7963.659,512
5.65625,5038.055,-7970.249,512
5.658203,5034.896,-7979.603,512
5.660156,5040.821,-7981.282,512
5.662109,5044.586,-7974.173,512
5.664062,5039.101,-7972.656,512
5.666016,5029.482,-7983.87,512
5.667969,5032.426,-7975.911,512
5.669922,5028.775,-7977.983,512
5.671875,5036.572,-7967.292,512
5.673828,5032.598,-7974.553,512
5.675781,5028.969,-7982.987,512
5.677734,5034.239,-7973.66,512
5.679688,5038.352,-7968.038,512
5.681641,5026.714,-7979.14,512
5.683594,5027.819,-7979.463,512
5.685547,5039.758,-7976.106,512
5.6875,5027.841,-7986.107,512
5.689453,5011.81,-7996.838,512
5.691406,5026.959,-7987.04,512
5.693359,5016.885,-8000.686,512
5.695312,5027.82,-7986.099,512
5.697266,5030.454,-7979.873,512
5.699219,5028.811,-7988.722,512
5.701172,5023.658,-7989.745,512
5.703125,5027.157,-7990.469,512
5.705078,5017.261,-7996.077,512
5.707031,5021.213,-7999.312,512
5.708984,5017.877,-7999.906,512
5.710938,5026.595,-7994.519,512
5.712891,5026.627,-7995.586,512
5.714844,5030.781,-7995.186,512
5.716797,5038.101,-7986.052,512
5.71875,5034.418,-7983.649,512
5.720703,5032.554,-7993.171,512
5.722656,5042.036,-7986.899,512
5.724609,5030.933,-7993.356,512
5.726562,5043.278,-7980.374,512
5.728516,5032.453,-7989.777,512
5.730469,5034.456,-7977.513,512
5.732422,5044.061,-7974.699,512
5.734375,5044.471,-7981.963,512
5.736328,5039.708,-7985.141,512
5.738281,5045.438,-7981.029,512
5.740234,5057.958,-7970.942,512
5.742188,5054.33,-7982.27,512
5.744141,5049.904,-7990.01,512
5.746094,5061.45,-7975.542,512
5.748047,5051.572,-7981.707,512
5.75,5047.68,-7989.025,512
5.751953,5050.433,-7985.846,512
5.753906,5051,-7990.138,512
5.755859,5053.993,-7991.596,512
5.757812,5051.601,-7993.467,512
5.759766,5048.591,-8007.183,512
5.761719,5057.412,-7999.309,512
5.763672,5062.958,-7988.583,512
5.765625,5070.865,-7992.14,512
5.767578,5064.871,-7991.136,512
5.769531,5057.76,-8002.585,512
5.771484,5061.638,-8008.355,512
5.773438,5067.94,-8004.097,512
5.775391,5066.729,-8002.503,512
5.777344,5057.073,-8008.355,512
5.779297,5048.85,-8021.278,512
5.78125,5066.052,-8003.224,512
5.783203,5090.37,-7984.534,512
5.785156,5075.521,-8004.453,512
5.787109,5069.844,-8017.354,512
5.789062,5074.914,-8014.039,512
5.791016,5067.909,-8022.12,512
5.792969,5072.729,-8024.309,512
5.794922,5097.683,-8008.932,512
5.796875,5078.896,-8023.913,512
5.798828,5088.292,-8019.452,512
5.800781,5082.675,-8023.879,512
5.802734,5092.789,-8022.765,512
5.804688,5111.519,-8010.366,512
5.806641,5108.133,-8024.567,512
5.808594,5103.025,-8009.623,512
5.810547,5099.909,-8019.831,512
5.8125,5104.318,-8020.747,512
5.814453,5113.637,-8008.636,512
5.816406,5109.109,-8014.644,512
5.818359,5103.577,-8018.818,512
5.820312,5105.086,-8018.139,512
5.822266,5101.785,-8030.317,512
5.824219,5107.836,-8022.024,512
5.826172,5108.061,-8021.594,512
5.828125,5113.908,-8017.108,512
5.830078,5114.545,-8013.069,512
5.832031,5116.491,-8014.429,512
5.833984,5112.302,-8020.486,512
5.835938,5110.875,-8025.278,512
5.837891,5107.775,-8029.308,512
5.839844,5098.951,-8038.99,512
5.841797,5100.995,-8039.472,512
5.84375,5101.412,-8039.169,512
5.845703,5108.218,-8027.03,512
5.847656,5114.976,-8017.408,512
5.849609,5103.746,-8023.41,512
5.851562,5104.745,-8025.145,512
5.853516,5106.505,-8016.657,512
5.855469,5081.499,-8025.731,512
5.857422,5084.387,-8020.088,512
5.859375,5092.85,-8007.411,512
5.861328,5077.848,-8016.377,512
5.863281,5078.745,-8015.917,512
5.865234,5061.704,-8032.487,512
5.867188,5048.312,-8027.971,512
5.869141,5067.074,-8008.554,512
5.871094,5058.512,-8009.449,512
5.873047,5055.763,-8007.07,512
5.875,5050.974,-8011.976,512
5.876953,5049.402,-8005.793,512
5.878906,5035.104,-8019.577,512
5.880859,5055.747,-7999.453,512
5.882812,5050.426,-8000.136,512
5.884766,5046.511,-8001.787,512
5.886719,5040.145,-8000.524,512
5.888672,5029.148,-8005.719,512
5.890625,5021.516,-8010.139,512
5.892578,5019.029,-8016.407,512
5.894531,5028.263,-8001.824,512
5.896484,5026.517,-8009.06,512
5.898438,5026.614,-8004.019,512
5.900391,5017.906,-8002.431,512
5.902344,5024.87,-7993.118,512
5.904297,5021.506,-7988.068,512
5.90625,5023.068,-7995.765,512
5.908203,5019.375,-7999.377,512
5.910156,5035.225,-7990.064,512
5.912109,5037.172,-7986.677,512
5.914062,5030.854,-7994.077,512
5.916016,5026.185,-7991.254,512
5.917969,5032.411,-7993.502,512
5.919922,5018.147,-8005.704,512
5.921875,5018.884,-7992.93,512
5.923828,5024.994,-7993.722,512
5.925781,5010.438,-7992.989,512
5.927734,5008.914,-7999.298,512
5.929688,5017.017,-7994.338,512
5.931641,5019.202,-7988.614,512
5.933594,5014.097,-7989.916,512
5.935547,5010.158,-7986.196,512
5.9375,5014.396,-7992.978,512
5.939453,5001.31,-8004.892,512
5.941406,5003.318,-7997.199,512
5.943359,5001.103,-7999.47,512
5.945312,4993.979,-8004.172,512
5.947266,4992.425,-8008.576,512
5.949219,5014.463,-7991.188,512
5.951172,5020.379,-7990.837,512
5.953125,5014.266,-7992.384,512
5.955078,5010.646,-7997.955,512
5.957031,4998.392,-8014.856,512
5.958984,4993.346,-8013.2,512
5.960938,5007.609,-7998.956,512
5.962891,5012.153,-8001.528,512
5.964844,5014.859,-8001.561,512
5.966797,5012.443,-8001.769,512
5.96875,5014.518,-8001.417,512
5.970703,5013.419,-8004.744,512
5.972656,5009.797,-8017.197,512
5.974609,5012.141,-8017.47,512
5.976562,5013.711,-8018.876,512
5.978516,5027.041,-8007.166,512
5.980469,5023.371,-7998.185,512
5.982422,5017.449,-8000.512,512
5.984375,5009.664,-8018.023,512
5.986328,5016.519,-8005.235,512
5.988281,5029.14,-7984.512,512
5.990234,5026.453,-8000.178,512
5.992188,5022.41,-8000.704,512
5.994141,5035.423,-7985.596,512
5.996094,5031.934,-7990.265,512
5.998047,5033.028,-7993.861,512
6,5025.204,-7992.366,512
6.001953,5020.932,-7998.739,512
6.003906,5031.128,-7987.803,512
6.005859,5023.902,-8000.335,512
6.007812,5033.155,-7995.289,512
6.009766,5036.296,-7978.821,512
6.011719,5027.028,-7991.487,512
6.013672,5023.735,-7997.803,512
6.015625,5026.257,-7997.116,512
6.017578,5033.487,-7992.173,512
6.019531,5026.475,-7999.391,512
6.021484,5029.045,-8000.477,512
6.023438,5027.187,-8002.686,512
6.025391,5018.331,-8013.794,512
6.027344,5024.853,-8005.428,512
6.029297,5030.776,-7998.327,512
6.03125,5029.825,-7985.262,512
6.033203,5034.482,-7988.954,512
6.035156,5034.377,-7992.889,512
6.037109,5032.41,-7992.683,512
6.039062,5036.025,-7992.277,512
6.041016,5042.402,-7994.717,512
6.042969,5030.132,-7998.794,512
6.044922,5024.535,-7993.612,512
6.046875,5024.636,-7994.073,512
6.048828,5038.698,-7986.893,512
6.050781,5043.15,-7976.5,512
6.052734,5018.403,-8009.99,512
6.054688,5026.207,-8015.652,512
6.056641,5030.816,-7999.572,512
6.058594,5028.902,-8002.591,512
6.060547,5024.862,-8013.62,512
6.0625,5023.133,-8017.783,512
6.064453,5025.872,-8012.196,512
6.066406,5031.004,-8006.093,512
6.068359,5027.146,-8009.456,512
6.070312,5031.765,-8006.542,512
6.072266,5042.673,-7990.822,512
6.074219,5028.803,-8002.135,512
6.076172,5030.608,-8004.73,512
6.078125,5032.226,-7997.731,512
6.080078,5036.145,-7992.192,512
6.082031,5036.725,-7988.938,512
6.083984,5038.582,-7984.374,512
6.085938,5049.613,-7983.32,512
6.087891,5056.293,-7973.749,512
6.089844,5063.6,-7973.871,512
6.091797,5050.681,-7978.618,512
6.09375,5052.028,-7981.342,512
6.095703,5061.599,-7975.286,512
6.097656,5062.486,-7970.267,512
6.099609,5065.791,-7962.645,512
6.101562,5056.175,-7974.794,512
6.103516,5045.956,-7979.243,512
6.105469,5053.668,-7979.107,512
6.107422,5057.945,-7967.011,512
6.109375,5068.656,-7954.41,512
6.111328,5072.385,-7955.783,512
6.113281,5065.379,-7956.139,512
6.115234,5073.303,-7947.221,512
6.117188,5065.021,-7948.107,512
6.119141,5067.881,-7951.261,512
6.121094,5062.783,-7961.614,512
6.123047,5064.878,-7958.44,512
6.125,5078.217,-7951.27,512
6.126953,5067.096,-7952.839,512
6.128906,5072.3,-7948.779,512
6.130859,5081.048,-7938.513,512
6.132812,5068.516,-7945.44,512
6.134766,5073.926,-7938.072,512
6.136719,5078.014,-7945.728,512
6.138672,5078.842,-7946.616,512
6.140625,5072.891,-7951.986,512
6.142578,5075.038,-7960.824,512
6.144531,5063.759,-7961.697,512
6.146484,5067.499,-7955.977,512
6.148438,5059.43,-7965.949,512
6.150391,5063.461,-7969.205,512
6.152344,5065.776,-7954.158,512
6.154297,5065.9,-7960.688,512
6.15625,5068.72,-7961.586,512
6.158203,5060.313,-7966.802,512
6.160156,5069.196,-7968.066,512
6.162109,5063.259,-7968.828,512
6.164062,5071.482,-7957.271,512
6.166016,5076.141,-7947.681,512
6.167969,5056.85,-7964.393,512
6.169922,5058.196,-7963.107,512
6.171875,5063.886,-7956.494,512
6.173828,5058.404,-7954.26,512
6.175781,5062.503,-7954.49,512
6.177734,5061.997,-7959.867,512
6.179688,5069.339,-7951.489,512
6.181641,5073.049,-7950.53,512
6.183594,5075.725,-7950.168,512
6.185547,5067.614,-7957.855,512
6.1875,5060.366,-7964.758,512
6.189453,5056.473,-7967.608,512
6.191406,5059.45,-7967.621,512
6.193359,5057.347,-7975.053,512
6.195312,5070.395,-7949.389,512
6.197266,5064.882,-7953.926,512
6.199219,5070.974,-7946.273,512
6.201172,5067.744,-7943.672,512
6.203125,5062.823,-7953.111,512
6.205078,5057.098,-7951.012,512
6.207031,5067.392,-7952.171,512
6.208984,5071.119,-7946.694,512
6.210938,5060.561,-7953.792,512
6.212891,5054.556,-7968.438,512
6.214844,5058.396,-7966.198,512
6.216797,5068.985,-7958.4,512
6.21875,5058.623,-7965.445,512
6.220703,5060.023,-7968.958,512
6.222656,5073.197,-7960.81,512
6.224609,5056.683,-7973.306,512
6.226562,5054.386,-7976.649,512
6.228516,5057.042,-7969.038,512
6.230469,5067.701,-7959.545,512
6.232422,5073.294,-7960.1,512
6.234375,5086.489,-7955.207,512
6.236328,5072.67,-7967.052,512
6.238281,5080.315,-7970.782,512
6.240234,5082.658,-7964.528,512
6.242188,5070.054,-7964.714,512
6.244141,5086.637,-7952.175,512
6.246094,5081.21,-7966.081,512
6.248047,5085.129,-7961.822,512
6.25,5096.604,-7962.782,512
6.251953,5101.339,-7976.316,512
6.253906,5102.184,-7984.258,512
6.255859,5106.834,-7977.55,512
6.257812,5093.955,-7988.319,512
6.259766,5085.879,-7991.652,512
6.261719,5089.602,-7982.936,512
6.263672,5095.279,-7971.178,512
6.265625,5097.427,-7958.731,512
6.267578,5076.227,-7969.164,512
6.269531,5075.093,-7964.981,512
6.271484,5093.057,-7951.957,512
6.273438,5086.418,-7959.839,512
6.275391,5088.12,-7955.801,512
6.277344,5090.886,-7954.021,512
6.279297,5080.278,-7962.942,512
6.28125,5081.207,-7943.387,512
6.283203,5071.32,-7952.758,512
6.285156,5071.312,-7954.478,512
6.287109,5083.263,-7953.957,512
6.289062,5065.291,-7967.543,512
6.291016,5069.958,-7960.38,512
6.292969,5076.964,-7950.061,512
6.294922,5064.543,-7952.702,512
6.296875,5063.014,-7943.545,512
6.298828,5049.806,-7954.469,512
6.300781,5035.001,-7967.763,512
6.302734,5046.808,-7953.503,512
6.304688,5045.547,-7947.257,512
6.306641,5043.755,-7954.474,512
6.308594,5042.315,-7956.65,512
6.310547,5042.269,-7953.485,512
6.3125,5048.768,-7950.364,512
6.314453,5039.737,-7956.592,512
6.316406,5046.893,-7947.736,512
6.318359,5041.547,-7951.075,512
6.320312,5013.755,-7969.133,512
6.322266,5025.835,-7965.953,512
6.324219,5037.953,-7952.804,512
6.326172,5035.02,-7955.902,512
6.328125,5033.148,-7954.695,512
6.330078,5043.139,-7950.479,512
6.332031,5046.875,-7946.684,512
6.333984,5048.683,-7936.838,512
6.335938,5040.637,-7940.746,512
6.337891,5033.898,-7944.874,512
6.339844,5037.741,-7947.377,512
6.341797,5033.512,-7949.376,512
6.34375,5038.198,-7946.947,512
6.345703,5042.774,-7943.873,512
6.347656,5039.647,-7949.131,512
6.349609,5046.095,-7947.042,512
6.351562,5047.223,-7945.964,512
6.353516,5053.681,-7952.758,512
6.355469,5041.916,-7943.163,512
6.357422,5027.853,-7954.734,512
6.359375,5037.123,-7952.267,512
6.361328,5044.212,-7941.842,512
6.363281,5051.925,-7940.891,512
6.365234,5053.52,-7932.168,512
6.367188,5037.262,-7946.667,512
6.369141,5031.336,-7948.445,512
6.371094,5046.191,-7936.387,512
6.373047,5041.646,-7948.501,512
6.375,5040.218,-7954.916,512
6.376953,5054.015,-7947.335,512
6.378906,5065.328,-7931.285,512
6.380859,5048.051,-7942.819,512
6.382812,5030.914,-7952.288,512
6.384766,5041.667,-7943.983,512
6.386719,5044.464,-7947.203,512
6.388672,5035.153,-7960.416,512
6.390625,5041,-7955.733,512
6.392578,5047.855,-7949.07,512
6.394531,5045.786,-7944.576,512
6.396484,5055.836,-7942.421,512
6.398438,5062.262,-7937.787,512
6.400391,5068.061,-7933.686,512
6.402344,5076.857,-7931.641,512
6.404297,5073.094,-7936.639,512
6.40625,5078.961,-7952.676,512
6.408203,5095.63,-7950.307,512
6.410156,5115.697,-7956.146,512
6.412109,5118.981,-7976.371,512
6.414062,5145.099,-7989.091,512
6.416016,5165.427,-8024.914,512
6.417969,5184.136,-8055.006,512
6.419922,5218.98,-8071.338,512
6.421875,5228.542,-8098.667,512
6.423828,5235.058,-8116.123,512
6.425781,5245.942,-8128.797,512
6.427734,5240.681,-8135.778,512
6.429688,5240.793,-8131.574,512
6.431641,5198.239,-8128.886,512
6.433594,5175.14,-8111.949,512
6.435547,5179.069,-8078.674,512
6.4375,5160.575,-8061.978,512
6.439453,5139.172,-8054.55,512
6.441406,5134.479,-8025.022,512
6.443359,5100.339,-8004.654,512
6.445312,5078.561,-7969.784,512
6.447266,5056.268,-7962.075,512
6.449219,5047.357,-7961.563,512
6.451172,5053.655,-7940.997,512
6.453125,5054.824,-7937.396,512
6.455078,5043.859,-7950.091,512
6.457031,5058.421,-7931.756,512
6.458984,5055.696,-7932.52,512
6.460938,5056.013,-7935.303,512
6.462891,5063.382,-7926.31,512
6.464844,5061.134,-7932.059,512
6.466797,5062.514,-7929.759,512
6.46875,5055.148,-7938.548,512
6.470703,5063.021,-7931.999,512
6.472656,5073.462,-7920.349,512
6.474609,5058.68,-7932.709,512
6.476562,5069.723,-7920.861,512
6.478516,5054.773,-7936.601,512
6.480469,5066.401,-7930.364,512
6.482422,5063.291,-7918.111,512
6.484375,5073.979,-7910.228,512
6.486328,5066.708,-7924.164,512
6.488281,5064.331,-7925.668,512
6.490234,5068.096,-7924.287,512
6.492188,5081.556,-7907.134,512
6.494141,5082.83,-7910.085,512
6.496094,5073.199,-7925.338,512
6.498047,5076.54,-7909.47,512
6.5,5076.941,-7907.692,512
6.501953,5073.915,-7906.594,512
6.503906,5058.274,-7923.67,512
6.505859,5054.622,-7929.661,512
6.507812,5067.975,-7919.198,512
6.509766,5070.454,-7910.993,512
6.511719,5067.519,-7921.16,512
6.513672,5079.542,-7919.883,512
6.515625,5080.651,-7922.808,512
6.517578,5082.648,-7908.509,512
6.519531,5071.466,-7924.137,512
6.521484,5075.64,-7918.702,512
6.523438,5071.894,-7922.355,512
6.525391,5060.844,-7929.995,512
6.527344,5067.088,-7929.318,512
6.529297,5076.786,-7924.668,512
6.53125,5083.433,-7916.054,512
6.533203,5077.165,-7921.648,512
6.535156,5080.729,-7915.021,512
6.537109,5073.41,-7915.893,512
6.539062,5071.574,-7919.355,512
6.541016,5067.877,-7925.294,512
6.542969,5064.102,-7930.069,512
6.544922,5078,-7916.649,512
6.546875,5078.385,-7908.724,512
6.548828,5079.943,-7912.836,512
6.550781,5076.79,-7919.117,512
6.552734,5067.778,-7930.136,512
6.554688,5076.713,-7926.953,512
6.556641,5079.854,-7914.225,512
6.558594,5073.947,-7927.783,512
6.560547,5075.633,-7926.356,512
6.5625,5082.228,-7918.753,512
6.564453,5083.432,-7919.537,512
6.566406,5074.367,-7936.731,512
6.568359,5083.081,-7913.094,512
6.570312,5078.416,-7920.38,512
6.572266,5084.446,-7920.67,512
6.574219,5082.732,-7929.434,512
6.576172,5078.769,-7928.015,512
6.578125,5083.611,-7918.898,512
6.580078,5067.494,-7930.604,512
6.582031,5065.925,-7933.526,512
6.583984,5083.702,-7917.989,512
6.585938,5083.062,-7920.684,512
6.587891,5076.538,-7932.673,512
6.589844,5087.219,-7922.028,512
6.591797,5086.635,-7930.757,512
6.59375,5091.767,-7926.316,512
6.595703,5102.42,-7907.605,512
6.597656,5091.516,-7921.161,512
6.599609,5080.662,-7919.486,512
6.601562,5085.367,-7925.26,512
6.603516,5082.946,-7933.159,512
6.605469,5094.323,-7930.224,512
6.607422,5085.43,-7941.4,512
6.609375,5084.943,-7925.322,512
6.611328,5085.933,-7930.025,512
6.613281,5089.819,-7928.542,512
6.615234,5096.655,-7897.347,512
6.617188,5083.804,-7926.336,512
6.619141,5078.808,-7929.952,512
6.621094,5093.222,-7918.738,512
6.623047,5083.556,-7940.084,512
6.625,5097.661,-7924.269,512
6.626953,5100.884,-7922.472,512
6.628906,5099.653,-7929.839,512
6.630859,5103.475,-7926.122,512
6.632812,5103.325,-7920.466,512
6.634766,5103.297,-7921.925,512
6.636719,5108.817,-7928.653,512
6.638672,5101.896,-7925.443,512
6.640625,5102.224,-7930.826,512
6.642578,5115.441,-7930.008,512
6.644531,5107.907,-7937.323,512
6.646484,5111.123,-7930.741,512
6.648438,5131.987,-7905.864,512
6.650391,5123.242,-7925.881,512
6.652344,5117.506,-7931.101,512
6.654297,5108.488,-7934.913,512
6.65625,5121.18,-7930.625,512
6.658203,5123.017,-7936.211,512
6.660156,5121.672,-7943.379,512
6.662109,5125.35,-7933.721,512
6.664062,5134.809,-7925.973,512
6.666016,5139.979,-7928.013,512
6.667969,5138.823,-7928.937,512
6.669922,5123.071,-7951.105,512
6.671875,5132.988,-7954.706,512
6.673828,5129.874,-7956.103,512
6.675781,5131.743,-7955.115,512
6.677734,5140.176,-7948.504,512
6.679688,5144.938,-7942.935,512
6.681641,5150.25,-7936.355,512
6.683594,5136.826,-7954.446,512
6.685547,5153.895,-7953.9,512
6.6875,5152.454,-7948.58,512
6.689453,5163.591,-7949.653,512
6.691406,5158.473,-7949.095,512
6.693359,5159.136,-7943.091,512
6.695312,5170.998,-7945.427,512
6.697266,5162.408,-7946.249,512
6.699219,5160.46,-7951.473,512
6.701172,5168.26,-7943.312,512
6.703125,5159.49,-7948.539,512
6.705078,5164.16,-7942.211,512
6.707031,5157.742,-7954.54,512
6.708984,5167.885,-7956.442,512
6.710938,5166.635,-7944.668,512
6.712891,5167.82,-7946.9,512
6.714844,5165.895,-7949.094,512
6.716797,5165.517,-7945.671,512
6.71875,5174.905,-7934.824,512
6.720703,5166.291,-7940.492,512
6.722656,5149.019,-7950.74,512
6.724609,5149.097,-7952.878,512
6.726562,5166.533,-7947.789,512
6.728516,5145.991,-7940.785,512
6.730469,5144.601,-7934.582,512
6.732422,5152.52,-7925.63,512
6.734375,5161.236,-7918.128,512
6.736328,5150.572,-7924.475,512
6.738281,5132.718,-7939.189,512
6.740234,5139.817,-7939.021,512
6.742188,5131.377,-7943.799,512
6.744141,5117.465,-7924.674,512
6.746094,5116.552,-7930.205,512
6.748047,5117.438,-7926.881,512
6.75,5104.834,-7931.607,512
6.751953,5117.439,-7924.464,512
6.753906,5113.863,-7921.883,512
6.755859,5104.688,-7922.24,512
6.757812,5092.21,-7922.748,512
6.759766,5090.945,-7927.712,512
6.761719,5093.314,-7922.642,512
6.763672,5091.894,-7921.566,512
6.765625,5091.619,-7921.265,512
6.767578,5096.725,-7911.814,512
6.769531,5079.97,-7918.794,512
6.771484,5074.976,-7916.865,512
6.773438,5082.47,-7916.004,512
6.775391,5079.004,-7927.823,512
6.777344,5078.354,-7924.161,512
6.779297,5086.457,-7917.571,512
6.78125,5079.011,-7917.222,512
6.783203,5068.444,-7915.314,512
6.785156,5074.22,-7911.562,512
6.787109,5080.492,-7899.758,512
6.789062,5079.927,-7905.656,512
6.791016,5075.746,-7919.321,512
6.792969,5069.222,-7924.188,512
6.794922,5089.328,-7906.89,512
6.796875,5070.988,-7918.44,512
6.798828,5070.312,-7919.067,512
6.800781,5085.193,-7906.637,512
6.802734,5073.845,-7916.135,512
6.804688,5063.841,-7921.486,512
6.806641,5067.848,-7917.473,512
6.808594,5067.164,-7918.8,512
6.810547,5069.336,-7916.084,512
6.8125,5060.883,-7925.438,512
6.814453,5063.434,-7920.708,512
6.816406,5061.705,-7920.902,512
6.818359,5073.583,-7915.02,512
6.820312,5077.985,-7913.437,512
6.822266,5069.26,-7923.183,512
6.824219,5062.936,-7926.943,512
6.826172,5065.11,-7925.167,512
6.828125,5056.699,-7927.003,512
6.830078,5071.94,-7910.308,512
6.832031,5067.763,-7917.888,512
6.833984,5066.243,-7917.726,512
6.835938,5074.06,-7902.114,512
6.837891,5067.815,-7918.897,512
6.839844,5066.777,-7926.79,512
6.841797,5058.902,-7931.627,512
6.84375,5070.444,-7922.779,512
6.845703,5067.434,-7912.05,512
6.847656,5077.194,-7914.903,512
6.849609,5071.581,-7917.169,512
6.851562,5081.918,-7905.913,512
6.853516,5080.977,-7913.65,512
6.855469,5068.037,-7918.506,512
6.857422,5073.578,-7904.696,512
6.859375,5058.286,-7929.303,512
6.861328,5068.384,-7926.821,512
6.863281,5066.962,-7928.694,512
6.865234,5079.757,-7918.007,512
6.867188,5085.188,-7913.887,512
6.869141,5071.547,-7916.513,512
6.871094,5067.412,-7923.911,512
6.873047,5079.64,-7913.855,512
6.875,5068.647,-7927.375,512
6.876953,5068.636,-7924.004,512
6.878906,5070.497,-7918.533,512
6.880859,5073.631,-7920.179,512
6.882812,5067.255,-7921.025,512
6.884766,5060.818,-7927.337,512
6.886719,5068.436,-7929.013,512
6.888672,5070.368,-7926.687,512
6.890625,5078.941,-7923.863,512
6.892578,5068.745,-7930.889,512
6.894531,5072.545,-7928.83,512
6.896484,5074.692,-7931.366,512
6.898438,5083.185,-7919.897,512
6.900391,5083.59,-7931.14,512
6.902344,5068.716,-7946.704,512
6.904297,5070.818,-7932.947,512
6.90625,5073.739,-7930.217,512
6.908203,5070.27,-7940.111,512
6.910156,5072.155,-7931.75,512
6.912109,5076.57,-7929.559,512
6.914062,5078.78,-7933.823,512
6.916016,5080.899,-7919.549,512
6.917969,5077.323,-7925.355,512
6.919922,5066.043,-7931.651,512
6.921875,5071.287,-7927.734,512
6.923828,5092.217,-7929.08,512
6.925781,5090.513,-7916.645,512
6.927734,5073.046,-7932.944,512
6.929688,5085.867,-7922.176,512
6.931641,5085.468,-7914.032,512
6.933594,5070.158,-7920.47,512
6.935547,5082.748,-7898.784,512
6.9375,5086.612,-7905.004,512
6.939453,5088.661,-7906.72,512
6.941406,5074.58,-7925.227,512
6.943359,5082.494,-7921.536,512
6.945312,5082.533,-7908.349,512
6.947266,5058.773,-7922.423,512
6.949219,5069.898,-7914.815,512
6.951172,5080.871,-7904.762,512
6.953125,5067.303,-7922.468,512
6.955078,5067.342,-7922.492,512
6.957031,5071.733,-7925.469,512
6.958984,5072.405,-7924.524,512
6.960938,5073.172,-7927.36,512
6.962891,5079.428,-7919.615,512
6.964844,5077.559,-7919.084,512
6.966797,5081.852,-7914.106,512
6.96875,5075.37,-7915.371,512
6.970703,5077.21,-7914.377,512
6.972656,5075.659,-7925.55,512
6.974609,5074.477,-7932.913,512
6.976562,5079.44,-7916.85,512
6.978516,5083.456,-7921.159,512
6.980469,5062.21,-7929.129,512
6.982422,5076.458,-7913.666,512
6.984375,5070.993,-7926.082,512
6.986328,5072.085,-7922.759,512
6.988281,5075.573,-7924.22,512
6.990234,5065.246,-7943.05,512
6.992188,5068.453,-7937.507,512
6.994141,5072.035,-7932.457,512
6.996094,5084.431,-7908.69,512
6.998047,5072.583,-7921.561,512
7,5066.8,-7924.141,512
7.001953,5076.129,-7921.339,512
7.003906,5072.469,-7920.435,512
7.005859,5068.313,-7926.199,512
7.007812,5074.315,-7920.205,512
7.009766,5075.323,-7919.629,512
7.011719,5071.409,-7927.728,512
7.013672,5077.212,-7912.232,512
7.015625,5079.242,-7902.616,512
7.017578,5069.228,-7903.296,512
7.019531,5069.862,-7906.027,512
7.021484,5069.173,-7912.685,512
7.023438,5075.255,-7911.337,512
7.025391,5083.422,-7899.148,512
7.027344,5076.699,-7901.089,512
7.029297,5082.725,-7898.909,512
7.03125,5077.63,-7898.85,512
7.033203,5067.053,-7916.017,512
7.035156,5077.516,-7894.081,512
7.037109,5074.714,-7908.088,512
7.039062,5067.613,-7923.594,512
7.041016,5069.513,-7913.745,512
7.042969,5073.431,-7923.871,512
7.044922,5073.369,-7924.553,512
7.046875,5072.94,-7895.342,512
7.048828,5076.582,-7910.34,512
7.050781,5071.029,-7909.279,512
7.052734,5085.421,-7888.813,512
7.054688,5064.833,-7911.966,512
7.056641,5060.281,-7929.373,512
7.058594,5066.375,-7923.765,512
7.060547,5066.869,-7923.905,512
7.0625,5079.639,-7906.808,512
7.064453,5063.75,-7925.396,512
7.066406,5056.74,-7922.411,512
7.068359,5073.48,-7922.071,512
7.070312,5081.187,-7915.37,512
7.072266,5093.477,-7901.413,512
7.074219,5073.093,-7916.546,512
7.076172,5047.256,-7933.162,512
7.078125,5076.746,-7917.382,512
7.080078,5079.185,-7935.312,512
7.082031,5085.746,-7922.747,512
7.083984,5087.772,-7922.888,512
7.085938,5080.189,-7925.883,512
7.087891,5076.093,-7932.656,512
7.089844,5079.109,-7935.087,512
7.091797,5080.514,-7931.104,512
7.09375,5094.163,-7929.027,512
7.095703,5095.54,-7940.492,512
7.097656,5102.431,-7938.077,512
7.099609,5112.102,-7941.572,512
7.101562,5108.414,-7947.726,512
7.103516,5102.181,-7954.506,512
7.105469,5098.907,-7946.563,512
7.107422,5088.363,-7954.337,512
7.109375,5102.156,-7944.591,512
7.111328,5111.402,-7927.538,512
7.113281,5101.093,-7939.431,512
7.115234,5093.113,-7933.703,512
7.117188,5087.024,-7929.081,512
7.119141,5088.038,-7927.292,512
7.121094,5086.785,-7919.668,512
7.123047,5087.605,-7928.39,512
7.125,5094.575,-7908.504,512
7.126953,5078.406,-7930.703,512
7.128906,5075.142,-7930.653,512
7.130859,5089.789,-7924.256,512
7.132812,5087.344,-7937.564,512
7.134766,5067.707,-7949.975,512
7.136719,5069.391,-7941.707,512
7.138672,5061.358,-7938.205,512
7.140625,5038.735,-7945.23,512
7.142578,5049.328,-7928.38,512
7.144531,5050.041,-7919.001,512
7.146484,5036.695,-7927.495,512
7.148438,5048.55,-7911.599,512
7.150391,5057.403,-7914.32,512
7.152344,5056.991,-7918.67,512
7.154297,5041.5,-7928.958,512
7.15625,5048.067,-7929.51,512
7.158203,5044.452,-7917.939,512
7.160156,5044.983,-7931.888,512
7.162109,5049.016,-7928.307,512
7.164062,5044.779,-7925.676,512
7.166016,5066.816,-7916.391,512
7.167969,5058.414,-7913.842,512
7.169922,5063.23,-7918.611,512
7.171875,5058.983,-7922.144,512
7.173828,5048.214,-7917.182,512
7.175781,5046.112,-7924.566,512
7.177734,5053.272,-7915.466,512
7.179688,5045.002,-7922.89,512
7.181641,5045.751,-7923.644,512
7.183594,5048.044,-7920.268,512
7.185547,5044.804,-7916.062,512
7.1875,5055.958,-7913.578,512
7.189453,5037.453,-7932.837,512
7.191406,5028.203,-7923.283,512
7.193359,5036.391,-7926.012,512
7.195312,5037.452,-7936.3,512
7.197266,5053.225,-7915.547,512
7.199219,5048.689,-7922.169,512
7.201172,5056.762,-7917.973,512
7.203125,5048.451,-7921.656,512
7.205078,5031.187,-7941.999,512
7.207031,5042.362,-7933.119,512
7.208984,5052.932,-7922.114,512
7.210938,5041.342,-7931.95,512
7.212891,5049.83,-7930.051,512
7.214844,5047.645,-7921.318,512
7.216797,5053.828,-7917.912,512
7.21875,5045.283,-7928.683,512
7.220703,5038.152,-7925.504,512
7.222656,5048.869,-7928.308,512
7.224609,5036.418,-7933.202,512
7.226562,5043.158,-7923.645,512
7.228516,5034.3,-7926.158,512
7.230469,5044.078,-7919.727,512
7.232422,5049.79,-7916.451,512
7.234375,5046.566,-7917.506,512
7.236328,5063.819,-7920.196,512
7.238281,5053.769,-7930.093,512
7.240234,5049.826,-7935.742,512
7.242188,5048.84,-7939.75,512
7.244141,5054.378,-7930.914,512
7.246094,5066.008,-7915.192,512
7.248047,5067.965,-7917.063,512
7.25,5077.696,-7907.039,512
7.251953,5078.446,-7920.571,512
7.253906,5076.424,-7938.646,512
7.255859,5082.812,-7954.913,512
7.257812,5080.366,-7980.584,512
7.259766,5110.421,-7986.819,512
7.261719,5145.939,-8007.299,512
7.263672,5169.768,-8024.256,512
7.265625,5194.933,-8041.545,512
7.267578,5217.044,-8067.452,512
7.269531,5226.568,-8083.719,512
7.271484,5227.397,-8096.021,512
7.273438,5207.845,-8114.374,512
7.275391,5179.267,-8136.739,512
7.277344,5171.128,-8129.429,512
7.279297,5162.549,-8109.566,512
7.28125,5160.445,-8075.564,512
7.283203,5146.032,-8062.701,512
7.285156,5131.305,-8054.56,512
7.287109,5111.659,-8035.927,512
7.289062,5107.699,-8007.605,512
7.291016,5095.618,-7969.463,512
7.292969,5051.594,-7964.214,512
7.294922,5050.091,-7934.53,512
7.296875,5034.911,-7929.628,512
7.298828,5030.657,-7938.41,512
7.300781,5043.872,-7929.935,512
7.302734,5054.291,-7909.82,512
7.304688,5053.275,-7916.426,512
7.306641,5043.273,-7914.243,512
7.308594,5051.279,-7919.789,512
7.310547,5044.521,-7918.18,512
7.3125,5050.031,-7914.955,512
7.314453,5061.041,-7893.648,512
7.316406,5047.698,-7914.721,512
7.318359,5053.312,-7918.038,512
7.320312,5054.026,-7905.481,512
7.322266,5062.919,-7911.554,512
7.324219,5049.523,-7916.346,512
7.326172,5066.36,-7894.431,512
7.328125,5058.433,-7912.975,512
7.330078,5054.98,-7916.38,512
7.332031,5058.192,-7908.817,512
7.333984,5077.75,-7891.971,512
7.335938,5071.234,-7900.13,512
7.337891,5045.542,-7922.818,512
7.339844,5050.144,-7928.881,512
7.341797,5066.736,-7918.03,512
7.34375,5059.397,-7919.012,512
7.345703,5056.061,-7915.705,512
7.347656,5070.805,-7910.122,512
7.349609,5064.011,-7913.015,512
7.351562,5055.775,-7907.661,512
7.353516,5059.829,-7900.696,512
7.355469,5043.685,-7928.081,512
7.357422,5043.187,-7935.337,512
7.359375,5060.907,-7918.932,512
7.361328,5059.04,-7923.136,512
7.363281,5051.403,-7929.466,512
7.365234,5061.851,-7933.261,512
7.367188,5055.206,-7925.855,512
7.369141,5053.562,-7913.461,512
7.371094,5059.64,-7923.281,512
7.373047,5055.447,-7931.904,512
