timestamp,exg1,exg2,srate
0,4776.808,-9371.998,512
0.001953125,4781.771,-9370.933,512
0.00390625,4766.448,-9377.677,512
0.005859375,4755.185,-9365.924,512
0.0078125,4756.085,-9360.9,512
0.009765625,4751.942,-9372.261,512
0.01171875,4773.401,-9375.94,512
0.01367188,4806.086,-9369.08,512
0.015625,4835.162,-9359.183,512
0.01757812,4830.549,-9353.903,512
0.01953125,4830.722,-9345.923,512
0.02148438,4834.199,-9345.41,512
0.0234375,4836.69,-9360.206,512
0.02539062,4851.53,-9371.636,512
0.02734375,4849.186,-9394.941,512
0.02929688,4856.292,-9416.443,512
0.03125,4874.285,-9444.695,512
0.03320312,4912.887,-9468.727,512
0.03515625,4952.473,-9493.213,512
0.03710938,4988.887,-9512.705,512
0.0390625,5020.713,-9547.849,512
0.04101562,5029.415,-9577.521,512
0.04296875,5021.989,-9597.649,512
0.04492188,5023.42,-9615.811,512
0.046875,5015.44,-9614.174,512
0.04882812,5001.479,-9613.937,512
0.05078125,4990.853,-9581.237,512
0.05273438,4955.416,-9564.276,512
0.0546875,4935.6,-9550.627,512
0.05664062,4915.003,-9517.198,512
0.05859375,4918.942,-9465.139,512
0.06054688,4890.674,-9428.22,512
0.0625,4845.481,-9410.761,512
0.06445312,4829.841,-9383.963,512
0.06640625,4810.672,-9379.581,512
0.06835938,4800.848,-9381.905,512
0.0703125,4815.359,-9362.076,512
0.07226562,4807.474,-9364.774,512
0.07421875,4814.107,-9358.7,512
0.07617188,4804.295,-9372.019,512
0.078125,4818.797,-9363.364,512
0.08007812,4820.982,-9362.392,512
0.08203125,4818.491,-9354.785,512
0.08398438,4815.449,-9350.248,512
0.0859375,4817.333,-9349.792,512
0.08789062,4812.816,-9356.59,512
0.08984375,4816.495,-9352.018,512
0.09179688,4818.835,-9352.527,512
0.09375,4811.289,-9357.803,512
0.09570312,4807.862,-9358.331,512
0.09765625,4811.026,-9361.644,512
0.09960938,4803.316,-9362.279,512
0.1015625,4813.836,-9348.818,512
0.1035156,4804.012,-9355.351,512
0.1054688,4800.86,-9355.523,512
0.1074219,4802.007,-9352.39,512
0.109375,4792.874,-9356.443,512
0.1113281,4804.613,-9356.81,512
0.1132812,4810.744,-9356.786,512
0.1152344,4809.748,-9362.347,512
0.1171875,4814.479,-9367.106,512
0.1191406,4824.548,-9356.994,512
0.1210938,4824.635,-9356.138,512
0.1230469,4817.868,-9365.311,512
0.125,4816.156,-9363.078,512
0.1269531,4810.693,-9368.054,512
0.1289062,4816.394,-9361.23,512
0.1308594,4814.061,-9360.961,512
0.1328125,4813.289,-9363.071,512
0.1347656,4829.194,-9349.61,512
0.1367188,4828.795,-9348.365,512
0.1386719,4816.654,-9360.021,512
0.140625,4809.327,-9355.18,512
0.1425781,4819.878,-9346.893,512
0.1445312,4812.539,-9361.902,512
0.1464844,4823.737,-9358.399,512
0.1484375,4839.072,-9351.903,512
0.1503906,4836.999,-9344.523,512
0.1523438,4825.652,-9358.08,512
0.1542969,4835.388,-9346.735,512
0.15625,4817.409,-9351.692,512
0.1582031,4812.069,-9358.79,512
0.1601562,4829.563,-9343.822,512
0.1621094,4834.204,-9345.458,512
0.1640625,4831.984,-9360.148,512
0.1660156,4829.817,-9360.35,512
0.1679688,4826.818,-9341.738,512
0.1699219,4845.151,-9332.86,512
0.171875,4853.038,-9340.413,512
0.1738281,4838.337,-9343.705,512
0.1757812,4842.452,-9336.072,512
0.1777344,4827.279,-9344.378,512
0.1796875,4818.249,-9346.812,512
0.1816406,4824.224,-9351.505,512
0.1835938,4842.111,-9352.75,512
0.1855469,4851.26,-9344.427,512
0.1875,4840.674,-9341.608,512
0.1894531,4831.569,-9344.898,512
0.1914062,4846.207,-9329.006,512
0.1933594,4841.583,-9342.975,512
0.1953125,4839.943,-9346.547,512
0.1972656,4844.352,-9363.456,512
0.1992188,4853.067,-9349.325,512
0.2011719,4836.162,-9342.799,512
0.203125,4846.058,-9340.07,512
0.2050781,4852.167,-9337.314,512
0.2070312,4845.179,-9332.482,512
0.2089844,4856.294,-9341.985,512
0.2109375,4854.532,-9352.651,512
0.2128906,4841.374,-9338.473,512
0.2148438,4841.988,-9352.282,512
0.2167969,4846.69,-9349.949,512
0.21875,4856.778,-9339.312,512
0.2207031,4854.72,-9339.24,512
0.2226562,4843.445,-9340.893,512
0.2246094,4830.5,-9344.364,512
0.2265625,4849.243,-9331.66,512
0.2285156,4831.797,-9351.295,512
0.2304688,4834.456,-9355.106,512
0.2324219,4855.771,-9345.224,512
0.234375,4855.6,-9352.561,512
0.2363281,4854.621,-9353.235,512
0.2382812,4862.881,-9343.896,512
0.2402344,4865.695,-9338.957,512
0.2421875,4861.395,-9339.307,512
0.2441406,4856.679,-9347.847,512
0.2460938,4882.938,-9340.768,512
0.2480469,4866.393,-9345.599,512
0.25,4876.366,-9347.575,512
0.2519531,4881.283,-9353.513,512
0.2539062,4869.292,-9355.034,512
0.2558594,4867.641,-9360.926,512
0.2578125,4882.617,-9354.645,512
0.2597656,4875.586,-9364.611,512
0.2617188,4881.389,-9362.465,512
0.2636719,4881.019,-9361.149,512
0.265625,4876.907,-9364.89,512
0.2675781,4883.855,-9353.574,512
0.2695312,4875.843,-9364.361,512
0.2714844,4899.007,-9349.676,512
0.2734375,4893.35,-9352.471,512
0.2753906,4883.277,-9360.499,512
0.2773438,4883.203,-9357.484,512
0.2792969,4889.377,-9359.437,512
0.28125,4877.852,-9373.726,512
0.2832031,4890.077,-9377.495,512
0.2851562,4899.563,-9355.688,512
0.2871094,4894.024,-9366.175,512
0.2890625,4905.444,-9356.053,512
0.2910156,4887.758,-9360.897,512
0.2929688,4905.059,-9362.812,512
0.2949219,4917.521,-9352.926,512
0.296875,4904.463,-9364.848,512
0.2988281,4905.99,-9349.9,512
0.3007812,4895.175,-9366.615,512
0.3027344,4902.208,-9370.787,512
0.3046875,4902.84,-9366.288,512
0.3066406,4894.371,-9377.388,512
0.3085938,4900.178,-9365.672,512
0.3105469,4891.48,-9377.074,512
0.3125,4903.336,-9379.095,512
0.3144531,4905.122,-9377.151,512
0.3164062,4909.15,-9371.162,512
0.3183594,4914.857,-9372.625,512
0.3203125,4924.375,-9367.606,512
0.3222656,4917.074,-9368.578,512
0.3242188,4906.794,-9383.503,512
0.3261719,4914.123,-9361.676,512
0.328125,4909.474,-9367.576,512
0.3300781,4914.828,-9372.731,512
0.3320312,4917.295,-9369.828,512
0.3339844,4918.601,-9366.065,512
0.3359375,4914.371,-9367.113,512
0.3378906,4905.162,-9357.301,512
0.3398438,4886.815,-9366.943,512
0.3417969,4880.351,-9361.439,512
0.34375,4885.532,-9357.646,512
0.3457031,4879.064,-9367.978,512
0.3476562,4889.598,-9352.092,512
0.3496094,4892.048,-9351.76,512
0.3515625,4896.543,-9353.408,512
0.3535156,4906.273,-9345.137,512
0.3554688,4893.973,-9359.286,512
0.3574219,4888.894,-9350.733,512
0.359375,4886.531,-9340.825,512
0.3613281,4874.594,-9353.315,512
0.3632812,4874.854,-9354.473,512
0.3652344,4879.613,-9346.328,512
0.3671875,4882.343,-9342.219,512
0.3691406,4885.56,-9339.249,512
0.3710938,4874.514,-9346.128,512
0.3730469,4874.29,-9345.084,512
0.375,4866.216,-9348.231,512
0.3769531,4866.451,-9357.766,512
0.3789062,4862.765,-9353.454,512
0.3808594,4854.113,-9364.207,512
0.3828125,4869.477,-9356.629,512
0.3847656,4858.867,-9358.225,512
0.3867188,4871.074,-9345.44,512
0.3886719,4873.082,-9334.672,512
0.390625,4856.884,-9339.282,512
0.3925781,4852.729,-9348.062,512
0.3945312,4841.433,-9360.089,512
0.3964844,4841.051,-9360.89,512
0.3984375,4855.287,-9347.536,512
0.4003906,4859.664,-9340.066,512
0.4023438,4852.328,-9332.406,512
0.4042969,4843.726,-9344.415,512
0.40625,4852.103,-9339.108,512
0.4082031,4840.513,-9353.312,512
0.4101562,4846.472,-9344.492,512
0.4121094,4849.962,-9341.095,512
0.4140625,4834.959,-9356.41,512
0.4160156,4845.321,-9344.608,512
0.4179688,4870.364,-9331.474,512
0.4199219,4859.067,-9324.517,512
0.421875,4834.452,-9345.934,512
0.4238281,4847.203,-9340.44,512
0.4257812,4853.045,-9349.734,512
0.4277344,4858.757,-9351.328,512
0.4296875,4863.247,-9340.76,512
0.4316406,4851.915,-9339.014,512
0.4335938,4839.625,-9339.868,512
0.4355469,4826.912,-9342.204,512
0.4375,4838.62,-9333.063,512
0.4394531,4851.865,-9339.718,512
0.4414062,4863.472,-9328.597,512
0.4433594,4861.186,-9341.179,512
0.4453125,4855.769,-9344.608,512
0.4472656,4853.496,-9350.499,512
0.4492188,4862.253,-9344.849,512
0.4511719,4852.837,-9350.197,512
0.453125,4854.725,-9344.354,512
0.4550781,4852.401,-9341.06,512
0.4570312,4862.035,-9339.729,512
0.4589844,4859.864,-9338.536,512
0.4609375,4860.003,-9344.305,512
0.4628906,4843.594,-9360.123,512
0.4648438,4835.72,-9360.634,512
0.4667969,4851.841,-9349.294,512
0.46875,4841.557,-9357.524,512
0.4707031,4842.463,-9359.697,512
0.4726562,4836.264,-9351.721,512
0.4746094,4825.065,-9357.778,512
0.4765625,4834.534,-9351.368,512
0.4785156,4834.267,-9361.276,512
0.4804688,4845.722,-9367.971,512
0.4824219,4839.928,-9366.239,512
0.484375,4835.699,-9363.287,512
0.4863281,4850.292,-9347.073,512
0.4882812,4845.859,-9353.121,512
0.4902344,4848.406,-9348.006,512
0.4921875,4860.261,-9345.209,512
0.4941406,4874.355,-9341.462,512
0.4960938,4872.316,-9354.745,512
0.4980469,4878.335,-9351.328,512
0.5,4871.268,-9350.071,512
0.5019531,4870.905,-9348.376,512
0.5039062,4856.957,-9357.938,512
0.5058594,4860.34,-9360.287,512
0.5078125,4865.852,-9355.17,512
0.5097656,4855.93,-9354.907,512
0.5117188,4858.884,-9348.608,512
0.5136719,4850.023,-9353.758,512
0.515625,4853.13,-9360.218,512
0.5175781,4873.666,-9352.384,512
0.5195312,4872.831,-9357.888,512
0.5214844,4895.742,-9336.56,512
0.5234375,4878.251,-9352.57,512
0.5253906,4850.496,-9364.419,512
0.5273438,4844.706,-9360.721,512
0.5292969,4853.941,-9351.134,512
0.53125,4854.114,-9347.359,512
0.5332031,4862.402,-9343.567,512
0.5351562,4847.344,-9351.302,512
0.5371094,4848.87,-9350.991,512
0.5390625,4851.001,-9350.806,512
0.5410156,4841.511,-9348.801,512
0.5429688,4839.644,-9349.229,512
0.5449219,4840.637,-9346.53,512
0.546875,4834.291,-9357.6,512
0.5488281,4847.588,-9346.744,512
0.5507812,4843.507,-9342.312,512
0.5527344,4851.966,-9339.53,512
0.5546875,4842.946,-9345.568,512
0.5566406,4822.848,-9355.191,512
0.5585938,4819.371,-9352.587,512
0.5605469,4824.958,-9362.226,512
0.5625,4838.128,-9348.245,512
0.5644531,4845.522,-9333.637,512
0.5664062,4828.942,-9346.938,512
0.5683594,4829.857,-9352.979,512
0.5703125,4838.918,-9341.371,512
0.5722656,4823.35,-9338.82,512
0.5742188,4832.693,-9336.078,512
0.5761719,4833.813,-9332.821,512
0.578125,4848.007,-9338.726,512
0.5800781,4862.858,-9344.35,512
0.5820312,4866.438,-9337.514,512
0.5839844,4873.336,-9329.72,512
0.5859375,4852.719,-9341.457,512
0.5878906,4850.423,-9338.854,512
0.5898438,4865.333,-9327.496,512
0.5917969,4864.571,-9330.762,512
0.59375,4849.045,-9338.955,512
0.5957031,4844.679,-9337.83,512
0.5976562,4841.31,-9339.691,512
0.5996094,4833.191,-9335.72,512
0.6015625,4841.667,-9332.148,512
0.6035156,4856.346,-9320.668,512
0.6054688,4855.342,-9314.676,512
0.6074219,4856.929,-9314.391,512
0.609375,4874.938,-9312.865,512
0.6113281,4873.181,-9323.111,512
0.6132812,4852.098,-9339.243,512
0.6152344,4847.683,-9338.601,512
0.6171875,4851.893,-9336.681,512
0.6191406,4831.517,-9346.228,512
0.6210938,4832.973,-9329.918,512
0.6230469,4820.434,-9336.097,512
0.625,4819.312,-9346.544,512
0.6269531,4827.646,-9340.45,512
0.6289062,4828.224,-9332.465,512
0.6308594,4820.112,-9343.419,512
0.6328125,4825.57,-9338.635,512
0.6347656,4847.822,-9324.959,512
0.6367188,4841.637,-9334.318,512
0.6386719,4826.435,-9347.842,512
0.640625,4844.414,-9333.837,512
0.6425781,4842.512,-9335.724,512
0.6445312,4827.598,-9349.812,512
0.6464844,4818.212,-9352.628,512
0.6484375,4815.219,-9347.312,512
0.6503906,4817.657,-9339.834,512
0.6523438,4803.88,-9347.118,512
0.6542969,4811.823,-9348.116,512
0.65625,4843.417,-9330.577,512
0.6582031,4842.372,-9333.908,512
0.6601562,4856.954,-9321.7,512
0.6621094,4849.017,-9331.439,512
0.6640625,4845.239,-9334.024,512
0.6660156,4851.465,-9324.286,512
0.6679688,4845.263,-9329.747,512
0.6699219,4846.011,-9330.397,512
0.671875,4851.837,-9314.841,512
0.6738281,4846.896,-9329.457,512
0.6757812,4841.807,-9330.501,512
0.6777344,4840.157,-9330.521,512
0.6796875,4844.739,-9329.025,512
0.6816406,4825.326,-9344.219,512
0.6835938,4816.887,-9350.108,512
0.6855469,4831.915,-9338.48,512
0.6875,4826.456,-9337.041,512
0.6894531,4834.481,-9328.521,512
0.6914062,4839.858,-9329.02,512
0.6933594,4855.231,-9334.229,512
0.6953125,4863.339,-9340.541,512
0.6972656,4859.99,-9340.356,512
0.6992188,4859.018,-9339.49,512
0.7011719,4863.736,-9335.681,512
0.703125,4887.251,-9323.793,512
0.7050781,4868.15,-9335.895,512
0.7070312,4863.558,-9332.983,512
0.7089844,4861.339,-9333.595,512
0.7109375,4858.044,-9343.942,512
0.7128906,4865.032,-9326.677,512
0.7148438,4854.187,-9339.05,512
0.7167969,4852.196,-9341.543,512
0.71875,4857.816,-9334.071,512
0.7207031,4863.949,-9346.337,512
0.7226562,4861.241,-9354.509,512
0.7246094,4862.254,-9357.436,512
0.7265625,4862.066,-9369.998,512
0.7285156,4858.645,-9366.687,512
0.7304688,4863.49,-9358.624,512
0.7324219,4859.691,-9353.054,512
0.734375,4868.064,-9334.266,512
0.7363281,4870.08,-9336.589,512
0.7382812,4861.833,-9340.379,512
0.7402344,4885.835,-9327.496,512
0.7421875,4883.592,-9338.771,512
0.7441406,4873.915,-9342.214,512
0.7460938,4874.216,-9330.723,512
0.7480469,4864.317,-9328.613,512
0.75,4863.903,-9326.229,512
0.7519531,4860.478,-9337.535,512
0.7539062,4858.708,-9326.229,512
0.7558594,4853.119,-9331.419,512
0.7578125,4848.815,-9327.926,512
0.7597656,4833.376,-9328.117,512
0.7617188,4835.869,-9322.68,512
0.7636719,4812.668,-9344.162,512
0.765625,4820.136,-9332.919,512
0.7675781,4826.079,-9314.895,512
0.7695312,4830.528,-9323.163,512
0.7714844,4818.211,-9320.403,512
0.7734375,4810.055,-9321.683,512
0.7753906,4838.608,-9307.431,512
0.7773438,4833.449,-9324.102,512
0.7792969,4826.942,-9336.352,512
0.78125,4829.807,-9318.564,512
0.7832031,4814.651,-9324.269,512
0.7851562,4815.236,-9307.929,512
0.7871094,4806.56,-9332.637,512
0.7890625,4815.102,-9326.136,512
0.7910156,4830.151,-9319.272,512
0.7929688,4818.525,-9332.666,512
0.7949219,4822.775,-9331.939,512
0.796875,4813.424,-9338.274,512
0.7988281,4814.507,-9331.122,512
0.8007812,4825.762,-9312.056,512
0.8027344,4829.021,-9315.939,512
0.8046875,4824.286,-9328.841,512
0.8066406,4834.214,-9311.4,512
0.8085938,4827.869,-9313.183,512
0.8105469,4813.159,-9336.208,512
0.8125,4820.632,-9325.065,512
0.8144531,4823.793,-9319.222,512
0.8164062,4820.593,-9309.64,512
0.8183594,4821.958,-9311.147,512
0.8203125,4828.352,-9311.433,512
0.8222656,4844.956,-9300.481,512
0.8242188,4842.381,-9310.736,512
0.8261719,4841.041,-9319.064,512
0.828125,4854.964,-9308.621,512
0.8300781,4833.123,-9320.416,512
0.8320312,4824.489,-9315.543,512
0.8339844,4824.106,-9306.299,512
0.8359375,4823.342,-9305.029,512
0.8378906,4834.748,-9302.805,512
0.8398438,4837.106,-9309.412,512
0.8417969,4824.545,-9331.999,512
0.84375,4840.877,-9318.118,512
0.8457031,4844.997,-9309.365,512
0.8476562,4834.957,-9307.519,512
0.8496094,4838.538,-9312.099,512
0.8515625,4838.791,-9318.659,512
0.8535156,4839.37,-9316.582,512
0.8554688,4841.137,-9315.488,512
0.8574219,4855.007,-9300.994,512
0.859375,4871.723,-9302.685,512
0.8613281,4878.138,-9304.758,512
0.8632812,4860.648,-9321.053,512
0.8652344,4858.062,-9344.005,512
0.8671875,4882.863,-9346.217,512
0.8691406,4931.555,-9355.18,512
0.8710938,4949.067,-9370.184,512
0.8730469,4971.027,-9390.402,512
0.875,4989.123,-9422.134,512
0.8769531,4992.634,-9463.706,512
0.8789062,5034.113,-9474.211,512
0.8808594,5054.271,-9493.188,512
0.8828125,5052.713,-9508.098,512
0.8847656,5038.412,-9512.792,512
0.8867188,5020.875,-9520.098,512
0.8886719,4995.847,-9512.459,512
0.890625,4984.221,-9482.711,512
0.8925781,4956.354,-9466.613,512
0.8945312,4935.186,-9446.094,512
0.8964844,4906.799,-9435.621,512
0.8984375,4894.486,-9422.99,512
0.9003906,4876.388,-9395.959,512
0.9023438,4881.204,-9349.975,512
0.9042969,4866.544,-9332.753,512
0.90625,4826.55,-9340.82,512
0.9082031,4843.508,-9324.838,512
0.9101562,4842.332,-9334.873,512
0.9121094,4828.49,-9341.146,512
0.9140625,4815.674,-9346.668,512
0.9160156,4840.992,-9326.446,512
0.9179688,4845.801,-9328.517,512
0.9199219,4849.343,-9323.492,512
0.921875,4856.096,-9320.383,512
0.9238281,4857.82,-9323.592,512
0.9257812,4847.592,-9338.974,512
0.9277344,4847.801,-9331.752,512
0.9296875,4831.252,-9331.362,512
0.9316406,4820.863,-9336.941,512
0.9335938,4837.177,-9328.558,512
0.9355469,4854.68,-9305.772,512
0.9375,4842.997,-9323.976,512
0.9394531,4850.176,-9322.937,512
0.9414062,4854.294,-9316.193,512
0.9433594,4851.938,-9319.217,512
0.9453125,4862.237,-9308.893,512
0.9472656,4852.173,-9314.988,512
0.9492188,4845.484,-9321.055,512
0.9511719,4840.621,-9324.616,512
0.953125,4849.514,-9321.007,512
0.9550781,4866.682,-9302.71,512
0.9570312,4859.865,-9295.976,512
0.9589844,4861.293,-9293.697,512
0.9609375,4861.764,-9285.535,512
0.9628906,4847.064,-9310.393,512
0.9648438,4851.845,-9304.33,512
0.9667969,4846.908,-9322.112,512
0.96875,4850.094,-9319.814,512
0.9707031,4854.748,-9308.457,512
0.9726562,4851.015,-9311.429,512
0.9746094,4849.809,-9314.678,512
0.9765625,4844.973,-9318.423,512
0.9785156,4851.985,-9319.587,512
0.9804688,4850.645,-9318.835,512
0.9824219,4855.908,-9319.728,512
0.984375,4862.013,-9324.745,512
0.9863281,4849.492,-9323.896,512
0.9882812,4844.457,-9319.825,512
0.9902344,4847.398,-9319.709,512
0.9921875,4865.093,-9309.138,512
0.9941406,4864.695,-9315.78,512
0.9960938,4848.034,-9330.047,512
0.9980469,4844.712,-9327.536,512
1,4842.268,-9325.19,512
1.001953,4846.937,-9313.238,512
1.003906,4835.529,-9315.909,512
1.005859,4847.289,-9303.082,512
1.007812,4835.995,-9321.51,512
1.009766,4847.387,-9322.333,512
1.011719,4849.452,-9328.6,512
1.013672,4852.7,-9332.792,512
1.015625,4861.924,-9328.824,512
1.017578,4848.827,-9341.314,512
1.019531,4851.476,-9335.816,512
1.021484,4854.274,-9326.287,512
1.023438,4852.605,-9321.83,512
1.025391,4865.333,-9309.531,512
1.027344,4863.285,-9308.334,512
1.029297,4860.811,-9316.159,512
1.03125,4851.871,-9328.496,512
1.033203,4840.047,-9315.545,512
1.035156,4839.543,-9316.119,512
1.037109,4848.569,-9301.995,512
1.039062,4838.113,-9311.988,512
1.041016,4854.447,-9324.206,512
1.042969,4866.083,-9322.008,512
1.044922,4875.17,-9320.444,512
1.046875,4870.787,-9327.532,512
1.048828,4878.134,-9324.43,512
1.050781,4883.744,-9325.237,512
1.052734,4875.4,-9331.388,512
1.054688,4872.958,-9325.827,512
1.056641,4883,-9314.772,512
1.058594,4877.047,-9310.217,512
1.060547,4866.209,-9327.576,512
1.0625,4858.778,-9346.193,512
1.064453,4868.054,-9346.111,512
1.066406,4877.078,-9327.466,512
1.068359,4858.268,-9342.295,512
1.070312,4863.182,-9328.569,512
1.072266,4873.636,-9313.26,512
1.074219,4872.359,-9330.623,512
1.076172,4893.778,-9324.844,512
1.078125,4899.069,-9334.886,512
1.080078,4880.897,-9342.596,512
1.082031,4879.905,-9341.808,512
1.083984,4877.336,-9341.257,512
1.085938,4881.73,-9334.479,512
1.087891,4875.872,-9336.078,512
1.089844,4879.787,-9334.729,512
1.091797,4884.109,-9332.696,512
1.09375,4888.602,-9333.194,512
1.095703,4891.359,-9330.025,512
1.097656,4890.316,-9334.88,512
1.099609,4899.321,-9340.835,512
1.101562,4893.532,-9335.393,512
1.103516,4888.353,-9336.863,512
1.105469,4907.046,-9336.102,512
1.107422,4905.775,-9337.836,512
1.109375,4896.476,-9341.721,512
1.111328,4895.831,-9340.808,512
1.113281,4912.511,-9333.67,512
1.115234,4909.541,-9344.737,512
1.117188,4899.61,-9341.535,512
1.119141,4918.568,-9319.611,512
1.121094,4910.983,-9316.709,512
1.123047,4902.854,-9322.447,512
1.125,4894.849,-9344.329,512
1.126953,4900.438,-9341.366,512
1.128906,4916.028,-9327.494,512
1.130859,4911.426,-9349.554,512
1.132812,4934.538,-9329.128,512
1.134766,4922.791,-9336.033,512
1.136719,4895.253,-9353.107,512
1.138672,4912.321,-9322.928,512
1.140625,4929.41,-9333.019,512
1.142578,4920.458,-9346.405,512
1.144531,4933.81,-9342.211,512
1.146484,4931.648,-9348.561,512
1.148438,4931.34,-9361.853,512
1.150391,4931.886,-9352.379,512
1.152344,4934.035,-9342.146,512
1.154297,4947.431,-9332.042,512
1.15625,4935.751,-9338.589,512
1.158203,4933.979,-9352.318,512
1.160156,4951.587,-9337.374,512
1.162109,4954.668,-9326.796,512
1.164062,4930.68,-9349.204,512
1.166016,4926.059,-9344.118,512
1.167969,4927.522,-9336.438,512
1.169922,4944.654,-9340.198,512
1.171875,4949.083,-9328.706,512
1.173828,4947.316,-9338.417,512
1.175781,4930.226,-9358.149,512
1.177734,4926.535,-9344.265,512
1.179688,4927.024,-9352.724,512
1.181641,4923.247,-9351.742,512
1.183594,4938.165,-9344.601,512
1.185547,4918.572,-9353.58,512
1.1875,4921.517,-9338.664,512
1.189453,4922.917,-9339.914,512
1.191406,4915.194,-9341.396,512
1.193359,4916.163,-9345.646,512
1.195312,4905.646,-9348.875,512
1.197266,4918.584,-9333.59,512
1.199219,4927.025,-9332,512
1.201172,4904.239,-9342.918,512
1.203125,4909.859,-9324.334,512
1.205078,4917.493,-9321.084,512
1.207031,4904.93,-9325.749,512
1.208984,4912.542,-9317.663,512
1.210938,4895.164,-9333.724,512
1.212891,4875.765,-9347.397,512
1.214844,4896.779,-9327.858,512
1.216797,4895.339,-9330.952,512
1.21875,4899.753,-9323.438,512
1.220703,4895.711,-9338.312,512
1.222656,4896.518,-9324.07,512
1.224609,4896.711,-9322.778,512
1.226562,4892.733,-9330.244,512
1.228516,4880.892,-9324.589,512
1.230469,4876.413,-9322.919,512
1.232422,4879.096,-9317.124,512
1.234375,4890.78,-9306.191,512
1.236328,4869.584,-9324.015,512
1.238281,4855.978,-9331.092,512
1.240234,4881.573,-9317.493,512
1.242188,4898.094,-9306.362,512
1.244141,4867.645,-9322.575,512
1.246094,4849.607,-9329.942,512
1.248047,4854.669,-9335.529,512
1.25,4868.974,-9330.134,512
1.251953,4878.973,-9331.708,512
1.253906,4878.45,-9349.565,512
1.255859,4905.963,-9325.909,512
1.257812,4902.033,-9331.166,512
1.259766,4871.256,-9346.468,512
1.261719,4882.502,-9341.089,512
1.263672,4879.228,-9340.181,512
1.265625,4891.051,-9328.183,512
1.267578,4881.288,-9331.272,512
1.269531,4873.215,-9324.638,512
1.271484,4881.913,-9325.141,512
1.273438,4888.816,-9330.615,512
1.275391,4906.061,-9320.623,512
1.277344,4899.194,-9323.559,512
1.279297,4875.694,-9333.048,512
1.28125,4858.335,-9323.238,512
1.283203,4868.71,-9308.421,512
1.285156,4896.726,-9299.906,512
1.287109,4911.832,-9295.232,512
1.289062,4916.26,-9295.389,512
1.291016,4916.669,-9296.503,512
1.292969,4916.305,-9301.332,512
1.294922,4888.371,-9334.524,512
1.296875,4897.852,-9328.888,512
1.298828,4882.811,-9329.176,512
1.300781,4874.926,-9333.918,512
1.302734,4882.892,-9329.381,512
1.304688,4888.024,-9321.638,512
1.306641,4887.274,-9328.935,512
1.308594,4884.297,-9325.166,512
1.310547,4874.602,-9329.565,512
1.3125,4880.628,-9323.78,512
1.314453,4875.402,-9328.084,512
1.316406,4888.586,-9324.611,512
1.318359,4877.725,-9333.988,512
1.320312,4873.431,-9326.024,512
1.322266,4869.238,-9334.596,512
1.324219,4881.981,-9321.513,512
1.326172,4889.134,-9322.035,512
1.328125,4898.947,-9334.271,512
1.330078,4907.414,-9333.322,512
1.332031,4876.921,-9345.458,512
1.333984,4869.09,-9344.187,512
1.335938,4865.365,-9341.233,512
1.337891,4868.838,-9333.52,512
1.339844,4877.154,-9333.214,512
1.341797,4895.335,-9328.889,512
1.34375,4895.755,-9335.066,512
1.345703,4906.681,-9331.832,512
1.347656,4879.342,-9343.381,512
1.349609,4887.333,-9326.996,512
1.351562,4892.497,-9334.117,512
1.353516,4889.366,-9327.678,512
1.355469,4891.889,-9330.221,512
1.357422,4893.039,-9332.369,512
1.359375,4890.361,-9346.393,512
1.361328,4881.857,-9342.414,512
1.363281,4870.917,-9337.893,512
1.365234,4890.529,-9320.043,512
1.367188,4887.719,-9316.241,512
1.369141,4867.147,-9335.968,512
1.371094,4864.815,-9339.499,512
1.373047,4884.116,-9331.906,512
1.375,4876.896,-9326.377,512
1.376953,4860.022,-9338.005,512
1.378906,4852.132,-9333.413,512
1.380859,4861.875,-9322.111,512
1.382812,4864.054,-9335.919,512
1.384766,4875.655,-9338.841,512
1.386719,4881.005,-9335.492,512
1.388672,4896.874,-9328.249,512
1.390625,4901.85,-9326.34,512
1.392578,4890.276,-9324.864,512
1.394531,4887.966,-9315.265,512
1.396484,4866.642,-9324.723,512
1.398438,4866.558,-9337.266,512
1.400391,4880.629,-9322.245,512
1.402344,4865.255,-9328.667,512
1.404297,4878.614,-9331.499,512
1.40625,4880.538,-9328.112,512
1.408203,4871.706,-9345.607,512
1.410156,4891.842,-9336.706,512
1.412109,4876.076,-9338.214,512
1.414062,4849.178,-9358.907,512
1.416016,4859.38,-9350.919,512
1.417969,4841.286,-9361.833,512
1.419922,4875.008,-9334.411,512
1.421875,4869.373,-9339.975,512
1.423828,4854.759,-9355.652,512
1.425781,4866.459,-9349.813,512
1.427734,4867.435,-9353.139,512
1.429688,4863.669,-9348.252,512
1.431641,4867.263,-9344.68,512
1.433594,4847.164,-9361.061,512
1.435547,4853.713,-9342.504,512
1.4375,4853.769,-9331.641,512
1.439453,4847.245,-9345.665,512
1.441406,4854.848,-9339.521,512
1.443359,4879.276,-9336.684,512
1.445312,4873.267,-9338.292,512
1.447266,4857.741,-9333.937,512
1.449219,4835.576,-9343.16,512
1.451172,4844.075,-9338.813,512
1.453125,4862.229,-9333.4,512
1.455078,4892.712,-9325.194,512
1.457031,4897.975,-9328.389,512
1.458984,4880.933,-9323.137,512
1.460938,4872.155,-9324.115,512
1.462891,4880.383,-9326.521,512
1.464844,4876.529,-9338.081,512
1.466797,4891.892,-9334.306,512
1.46875,4893.557,-9340.77,512
1.470703,4872.112,-9338.004,512
1.472656,4865.192,-9330.138,512
1.474609,4871.564,-9330.462,512
1.476562,4859.595,-9339.496,512
1.478516,4849.33,-9344.109,512
1.480469,4872.471,-9329.55,512
1.482422,4873.713,-9337.178,512
1.484375,4847.673,-9354.908,512
1.486328,4869.085,-9334.5,512
1.488281,4887.765,-9315.622,512
1.490234,4860.592,-9341.265,512
1.492188,4857.466,-9349.215,512
1.494141,4850.493,-9349.642,512
1.496094,4876.8,-9332.421,512
1.498047,4874.649,-9331.265,512
1.5,4875.11,-9332.485,512
1.501953,4886.61,-9322.996,512
1.503906,4882.496,-9332.571,512
1.505859,4884.988,-9341.811,512
1.507812,4891.186,-9330.963,512
1.509766,4883.811,-9343.789,512
1.511719,4895.837,-9345.541,512
1.513672,4898.01,-9337.839,512
1.515625,4887.556,-9345.044,512
1.517578,4885.688,-9347.112,512
1.519531,4893.321,-9340.207,512
1.521484,4896.501,-9333.896,512
1.523438,4882.171,-9344.775,512
1.525391,4895.842,-9340.87,512
1.527344,4911.656,-9343.051,512
1.529297,4917.812,-9359.469,512
1.53125,4919.174,-9357.463,512
1.533203,4916.138,-9366.15,512
1.535156,4912.425,-9362.273,512
1.537109,4907.984,-9340.629,512
1.539062,4901.918,-9364.739,512
1.541016,4921.695,-9333.701,512
1.542969,4911.153,-9334.011,512
1.544922,4918.656,-9326.436,512
1.546875,4913.439,-9332.573,512
1.548828,4917.57,-9345.568,512
1.550781,4925.009,-9343.604,512
1.552734,4910.008,-9341.09,512
1.554688,4917.216,-9337.604,512
1.556641,4905.99,-9331.999,512
1.558594,4887.424,-9329.793,512
1.560547,4891.975,-9324.168,512
1.5625,4911.321,-9326.905,512
1.564453,4899.462,-9334.318,512
1.566406,4905.469,-9323.291,512
1.568359,4897.771,-9328.01,512
1.570312,4888.126,-9325.202,512
1.572266,4896.845,-9315.87,512
1.574219,4876.56,-9322.081,512
1.576172,4879.95,-9319.061,512
1.578125,4873.125,-9320.809,512
1.580078,4876.57,-9310.513,512
1.582031,4883.708,-9296.769,512
1.583984,4878.382,-9311.76,512
1.585938,4885.894,-9314.141,512
1.587891,4895.214,-9302.319,512
1.589844,4897.253,-9299.273,512
1.591797,4899.093,-9308.421,512
1.59375,4885.762,-9308.205,512
1.595703,4887.878,-9306.579,512
1.597656,4866.491,-9313.165,512
1.599609,4860.18,-9315.954,512
1.601562,4872.145,-9319.126,512
1.603516,4879.015,-9298.77,512
1.605469,4877.942,-9310.591,512
1.607422,4879.471,-9310.946,512
1.609375,4892.221,-9305.581,512
1.611328,4874.65,-9317.663,512
1.613281,4878.375,-9315.104,512
1.615234,4878.268,-9310.518,512
1.617188,4884.896,-9301.35,512
1.619141,4877.07,-9310.231,512
1.621094,4887.2,-9298.089,512
1.623047,4890.651,-9291.81,512
1.625,4879.28,-9294.901,512
1.626953,4867.738,-9303.129,512
1.628906,4882.698,-9301.527,512
1.630859,4875.852,-9316.416,512
1.632812,4889.998,-9305.345,512
1.634766,4889.84,-9307.6,512
1.636719,4878.272,-9303.896,512
1.638672,4876.048,-9297.48,512
1.640625,4882.403,-9288.402,512
1.642578,4871.136,-9297.191,512
1.644531,4872.637,-9310.798,512
1.646484,4884.993,-9319.55,512
1.648438,4874.942,-9327.007,512
1.650391,4888.116,-9311.836,512
1.652344,4882.859,-9313.987,512
1.654297,4881.499,-9311.514,512
1.65625,4871.707,-9303.002,512
1.658203,4872.976,-9315.778,512
1.660156,4881.917,-9314.222,512
1.662109,4903.264,-9301.816,512
1.664062,4904.84,-9304.873,512
1.666016,4900,-9294.712,512
1.667969,4902.437,-9298.693,512
1.669922,4906.345,-9310.911,512
1.671875,4928.359,-9299.501,512
1.673828,4930.753,-9302.995,512
1.675781,4911.628,-9329.661,512
1.677734,4920.964,-9341.931,512
1.679688,4928.201,-9368.732,512
1.681641,4956.026,-9388.056,512
1.683594,4996.642,-9415.653,512
1.685547,5023.984,-9435.294,512
1.6875,5054.098,-9451.033,512
1.689453,5068.821,-9463.161,512
1.691406,5069.348,-9483.05,512
1.693359,5054.421,-9498.351,512
1.695312,5031.549,-9507.335,512
1.697266,5005.644,-9502.38,512
1.699219,4980.407,-9496.848,512
1.701172,4981.604,-9470.58,512
1.703125,4975.441,-9438.841,512
1.705078,4955.737,-9423.233,512
1.707031,4967.006,-9407.146,512
1.708984,4940.89,-9383.197,512
1.710938,4916.412,-9361.451,512
1.712891,4906.344,-9339.216,512
1.714844,4890.477,-9328.863,512
1.716797,4891.467,-9332.555,512
1.71875,4894.687,-9330.733,512
1.720703,4919.444,-9307.631,512
1.722656,4904.566,-9316.37,512
1.724609,4892.583,-9320.242,512
1.726562,4890.888,-9326.734,512
1.728516,4888.014,-9325.729,512
1.730469,4903.759,-9306.032,512
1.732422,4895.895,-9310.022,512
1.734375,4893.393,-9311.868,512
1.736328,4906.141,-9307.729,512
1.738281,4874.766,-9315.419,512
1.740234,4891.487,-9310.96,512
1.742188,4894.535,-9314.958,512
1.744141,4888.776,-9309.881,512
1.746094,4888.343,-9323.167,512
1.748047,4880.297,-9328.905,512
1.75,4881.698,-9328.579,512
1.751953,4893.769,-9321.922,512
1.753906,4901.572,-9302.454,512
1.755859,4887.884,-9312.793,512
1.757812,4892.552,-9304.849,512
1.759766,4896.74,-9303.759,512
1.761719,4896.863,-9315.339,512
1.763672,4892.883,-9322.422,512
1.765625,4888.562,-9326.412,512
1.767578,4906.049,-9308.389,512
1.769531,4897.148,-9306.797,512
1.771484,4898.115,-9310.451,512
1.773438,4905.694,-9292.115,512
1.775391,4880.323,-9325.5,512
1.777344,4879.545,-9333.941,512
1.779297,4890.259,-9319.177,512
1.78125,4892.113,-9317.562,512
1.783203,4894.811,-9318.648,512
1.785156,4908.754,-9297.957,512
1.787109,4889.458,-9302.536,512
1.789062,4893.04,-9308.029,512
1.791016,4889.676,-9314.629,512
1.792969,4893.323,-9316.831,512
1.794922,4901.843,-9307.156,512
1.796875,4897.133,-9322.05,512
1.798828,4900.957,-9316.587,512
1.800781,4909.754,-9297.984,512
1.802734,4907.902,-9297.212,512
1.804688,4904.739,-9298.568,512
1.806641,4925.55,-9281.16,512
1.808594,4906.007,-9289.22,512
1.810547,4898.125,-9300.664,512
1.8125,4922.636,-9295.805,512
1.814453,4886.737,-9314.537,512
1.816406,4906.993,-9300.264,512
1.818359,4909.161,-9302.133,512
1.820312,4899.82,-9315.02,512
1.822266,4901.305,-9303.058,512
1.824219,4900.256,-9297.966,512
1.826172,4907.657,-9296.283,512
1.828125,4897.303,-9308.328,512
1.830078,4911.609,-9305.846,512
1.832031,4931.419,-9297.852,512
1.833984,4931.993,-9291.486,512
1.835938,4918.316,-9301.275,512
1.837891,4904.8,-9306.187,512
1.839844,4907.953,-9295.253,512
1.841797,4899.754,-9307.357,512
1.84375,4898.018,-9310.562,512
1.845703,4907.301,-9306.391,512
1.847656,4918.326,-9305.761,512
1.849609,4905.453,-9316.085,512
1.851562,4920.87,-9300.605,512
1.853516,4913.588,-9310.144,512
1.855469,4898.27,-9306.713,512
1.857422,4923.425,-9296.188,512
1.859375,4935.063,-9296.48,512
1.861328,4906.08,-9315.055,512
1.863281,4898.292,-9306.379,512
1.865234,4897.49,-9305.693,512
1.867188,4900.26,-9316.514,512
1.869141,4916.021,-9305.722,512
1.871094,4944.927,-9294.055,512
1.873047,4947.263,-9295.14,512
1.875,4924.894,-9302.95,512
1.876953,4934.438,-9301.181,512
1.878906,4932.277,-9314.138,512
1.880859,4938.502,-9303.461,512
1.882812,4935.618,-9294.137,512
1.884766,4912.307,-9311.546,512
1.886719,4922.93,-9300.774,512
1.888672,4936.659,-9289.253,512
1.890625,4924.661,-9301.108,512
1.892578,4908.07,-9310.165,512
1.894531,4931.978,-9300.029,512
1.896484,4932.258,-9305.9,512
1.898438,4943.031,-9300.407,512
1.900391,4942.41,-9293.144,512
1.902344,4929,-9311.534,512
1.904297,4940.025,-9300.964,512
1.90625,4933.667,-9305.08,512
1.908203,4936.562,-9321.448,512
1.910156,4949.004,-9314.823,512
1.912109,4944.634,-9317.164,512
1.914062,4933.026,-9317.203,512
1.916016,4932.13,-9318.366,512
1.917969,4943.085,-9321.064,512
1.919922,4950.31,-9313.741,512
1.921875,4952.867,-9317.575,512
1.923828,4959.569,-9316.979,512
1.925781,4955.648,-9325.145,512
1.927734,4953.275,-9328.524,512
1.929688,4941.559,-9343.47,512
1.931641,4938.934,-9351.597,512
1.933594,4968.213,-9334.933,512
1.935547,4984.734,-9316.736,512
1.9375,4958.817,-9324.187,512
1.939453,4939,-9339.696,512
1.941406,4943.669,-9350.42,512
1.943359,4956.812,-9334.145,512
1.945312,4958.312,-9326.863,512
1.947266,4947.108,-9335.104,512
1.949219,4953.684,-9322.917,512
1.951172,4943.666,-9330.61,512
1.953125,4957.358,-9326.661,512
1.955078,4958.505,-9318.438,512
1.957031,4955.578,-9333.343,512
1.958984,4956.958,-9337.189,512
1.960938,4966.131,-9327.621,512
1.962891,4983.51,-9334.947,512
1.964844,4991.105,-9343.735,512
1.966797,5001.672,-9327.313,512
1.96875,5004.441,-9310.105,512
1.970703,4976.628,-9329.069,512
1.972656,4975.548,-9333.852,512
1.974609,4973.724,-9334.688,512
1.976562,4987.582,-9335.51,512
1.978516,4991.945,-9342.194,512
1.980469,4982.975,-9336.775,512
1.982422,4983.452,-9333.758,512
1.984375,4985.762,-9325.432,512
1.986328,4994.158,-9317.69,512
1.988281,4982.429,-9318.88,512
1.990234,4982.993,-9311.945,512
1.992188,4984.353,-9306.773,512
1.994141,4959.499,-9321.364,512
1.996094,4960.253,-9320.791,512
1.998047,4937.272,-9341.822,512
2,4950.321,-9320.862,512
2.001953,4956.379,-9312.206,512
2.003906,4962.173,-9312.267,512
2.005859,4951.619,-9315.505,512
2.007812,4949.853,-9308.13,512
2.009766,4942.224,-9313.762,512
2.011719,4927.028,-9317.361,512
2.013672,4933.016,-9314.635,512
2.015625,4931.007,-9310.604,512
2.017578,4924.731,-9323.316,512
2.019531,4923.595,-9312.312,512
2.021484,4928.955,-9302.631,512
2.023438,4937.333,-9296.834,512
2.025391,4928.47,-9298.229,512
2.027344,4921.991,-9311.705,512
2.029297,4915.146,-9321.967,512
2.03125,4903.013,-9329.928,512
2.033203,4907.303,-9319.927,512
2.035156,4903.667,-9313.253,512
2.037109,4895.824,-9314.841,512
2.039062,4873.756,-9324.659,512
2.041016,4880.38,-9321.965,512
2.042969,4890.143,-9328.314,512
2.044922,4893.341,-9326.523,512
2.046875,4907.989,-9307.069,512
2.048828,4903.243,-9318.416,512
2.050781,4898.02,-9318.12,512
2.052734,4887.393,-9318.807,512
2.054688,4895.345,-9322.838,512
2.056641,4895.958,-9316.009,512
2.058594,4888.256,-9304.927,512
2.060547,4883.403,-9312.005,512
2.0625,4877.034,-9314.622,512
2.064453,4892.193,-9300.232,512
2.066406,4895.066,-9307.546,512
2.068359,4908.793,-9303.92,512
2.070312,4913.952,-9304.958,512
2.072266,4899.485,-9312.192,512
2.074219,4903.877,-9301.927,512
2.076172,4897.919,-9299.166,512
2.078125,4906.592,-9294.396,512
2.080078,4900.827,-9306.657,512
2.082031,4902.463,-9306.108,512
2.083984,4904.323,-9297.85,512
2.085938,4907.394,-9295.087,512
2.087891,4926.737,-9293.04,512
2.089844,4926.414,-9297.151,512
2.091797,4923.312,-9293.983,512
2.09375,4920.843,-9309.643,512
2.095703,4908.865,-9318.9,512
2.097656,4919.409,-9305.009,512
2.099609,4909.116,-9303.274,512
2.101562,4886.026,-9316.758,512
2.103516,4893.727,-9298.927,512
2.105469,4882.232,-9304.557,512
2.107422,4889.208,-9306.37,512
2.109375,4890.274,-9323.19,512
2.111328,4884.962,-9329.496,512
2.113281,4894.718,-9321.948,512
2.115234,4900.06,-9322.398,512
2.117188,4906,-9318.05,512
2.119141,4888.665,-9322.2,512
2.121094,4899.705,-9312.302,512
2.123047,4904.224,-9303.476,512
2.125,4881.117,-9323.826,512
2.126953,4898.423,-9314.664,512
2.128906,4904.612,-9325.479,512
2.130859,4890.701,-9339.206,512
2.132812,4896.105,-9328.68,512
2.134766,4908.431,-9310.548,512
2.136719,4919.205,-9300.816,512
2.138672,4923.955,-9297.907,512
2.140625,4908.788,-9313.711,512
2.142578,4902.372,-9322.331,512
2.144531,4907.08,-9318.17,512
2.146484,4910.826,-9318.041,512
2.148438,4917.521,-9306.643,512
2.150391,4914.863,-9311.451,512
2.152344,4923.63,-9300.036,512
2.154297,4917.179,-9311.4,512
2.15625,4895.801,-9318.424,512
2.158203,4910.037,-9307.745,512
2.160156,4902.982,-9318.685,512
2.162109,4901.207,-9326.61,512
2.164062,4912.348,-9312.415,512
2.166016,4913.923,-9311.998,512
2.167969,4922.931,-9306.348,512
2.169922,4917.589,-9312.655,512
2.171875,4923.287,-9303.302,512
2.173828,4915.971,-9314.85,512
2.175781,4894.552,-9330.203,512
2.177734,4891.546,-9329.476,512
2.179688,4895.927,-9328.153,512
2.181641,4890.86,-9330.36,512
2.183594,4893.034,-9321.564,512
2.185547,4910.134,-9307.088,512
2.1875,4914.399,-9303.338,512
2.189453,4911.71,-9304.451,512
2.191406,4905.323,-9318.745,512
2.193359,4899.19,-9322.526,512
2.195312,4893.833,-9334.547,512
2.197266,4891.055,-9341.562,512
2.199219,4900.774,-9331.655,512
2.201172,4906.843,-9323.33,512
2.203125,4898.959,-9328.312,512
2.205078,4906.424,-9319.287,512
2.207031,4894.407,-9327.6,512
2.208984,4893.326,-9333.495,512
2.210938,4896.827,-9331.939,512
2.212891,4895.95,-9328.381,512
2.214844,4892.7,-9327.655,512
2.216797,4886.499,-9331.455,512
2.21875,4883.479,-9328.75,512
2.220703,4877.812,-9323.002,512
2.222656,4883.386,-9318.454,512
2.224609,4887.387,-9315.161,512
2.226562,4900.245,-9316.537,512
2.228516,4901.813,-9318.755,512
2.230469,4891.631,-9332.262,512
2.232422,4888.89,-9340.552,512
2.234375,4905.831,-9320.536,512
2.236328,4896.663,-9318.533,512
2.238281,4894.671,-9324.71,512
2.240234,4895.055,-9319.217,512
2.242188,4893.132,-9318.761,512
2.244141,4888.916,-9316.064,512
2.246094,4894.141,-9315.073,512
2.248047,4902.437,-9313.185,512
2.25,4889.025,-9323.444,512
2.251953,4893.134,-9319.419,512
2.253906,4891.334,-9312.586,512
2.255859,4897.449,-9306.508,512
2.257812,4877.252,-9342.963,512
2.259766,4889.131,-9332.481,512
2.261719,4893.607,-9331.133,512
2.263672,4889.983,-9343.982,512
2.265625,4894.235,-9349.543,512
2.267578,4890.763,-9343.471,512
2.269531,4884.027,-9344.177,512
2.271484,4884.014,-9347.579,512
2.273438,4893.486,-9322.584,512
2.275391,4869.735,-9339.271,512
2.277344,4877.124,-9333.872,512
2.279297,4874.305,-9330.141,512
2.28125,4853.582,-9342.54,512
2.283203,4861.942,-9346.073,512
2.285156,4876.642,-9337.93,512
2.287109,4884.515,-9328.229,512
2.289062,4879.663,-9335.223,512
2.291016,4883.406,-9320.694,512
2.292969,4869.899,-9337.97,512
2.294922,4869.723,-9331.379,512
2.296875,4862.986,-9330.981,512
2.298828,4858.614,-9345.963,512
2.300781,4886.599,-9324.41,512
2.302734,4896.86,-9317.574,512
2.304688,4886.938,-9313.347,512
2.306641,4876.548,-9320.814,512
2.308594,4879.993,-9318.765,512
2.310547,4886.878,-9313.838,512
2.3125,4871.802,-9324.244,512
2.314453,4890.84,-9324.751,512
2.316406,4906.304,-9316.982,512
2.318359,4915.322,-9321.386,512
2.320312,4890.004,-9331.552,512
2.322266,4884.092,-9331.007,512
2.324219,4914.464,-9306.545,512
2.326172,4903.828,-9316.094,512
2.328125,4891.194,-9327.271,512
2.330078,4896.958,-9322.983,512
2.332031,4899.307,-9310.954,512
2.333984,4896.678,-9314.719,512
2.335938,4890.149,-9319.255,512
2.337891,4901.384,-9304.502,512
2.339844,4895.77,-9306.216,512
2.341797,4871.748,-9330.66,512
2.34375,4893.7,-9319.125,512
2.345703,4900.892,-9316.673,512
2.347656,4885.285,-9329.32,512
2.349609,4877.75,-9329.333,512
2.351562,4881.309,-9328.082,512
2.353516,4884.326,-9315.238,512
2.355469,4882.037,-9322.252,512
2.357422,4881.987,-9329.216,512
2.359375,4888.832,-9326.5,512
2.361328,4889.086,-9321.269,512
2.363281,4893.412,-9318.622,512
2.365234,4897.453,-9322.792,512
2.367188,4887.667,-9323.073,512
2.369141,4889.955,-9323.375,512
2.371094,4884.782,-9330.828,512
2.373047,4870.97,-9334.593,512
2.375,4871.415,-9333.495,512
2.376953,4879.285,-9336.873,512
2.378906,4890.18,-9344.161,512
2.380859,4902.84,-9333.666,512
2.382812,4907.195,-9328.009,512
2.384766,4895.03,-9342.492,512
2.386719,4904.238,-9336.536,512
2.388672,4921.997,-9327.399,512
2.390625,4917.094,-9329.043,512
2.392578,4918.568,-9341.831,512
2.394531,4917.786,-9354.547,512
2.396484,4917.285,-9351.167,512
2.398438,4918.567,-9350.616,512
2.400391,4929.114,-9335.099,512
2.402344,4931.614,-9346.475,512
2.404297,4918.042,-9353.496,512
2.40625,4936.418,-9341.175,512
2.408203,4930.706,-9345.328,512
2.410156,4923.369,-9337.038,512
2.412109,4917.285,-9339.516,512
2.414062,4896.211,-9341.393,512
2.416016,4902.839,-9328.544,512
2.417969,4910.137,-9335.072,512
2.419922,4924.394,-9328.691,512
2.421875,4926.729,-9332.263,512
2.423828,4910.739,-9334.033,512
2.425781,4915.6,-9335.634,512
2.427734,4914.145,-9343.156,512
2.429688,4906.721,-9341.009,512
2.431641,4910.926,-9353.367,512
2.433594,4909.447,-9339.248,512
2.435547,4890.05,-9333.483,512
2.4375,4881.415,-9327.549,512
2.439453,4854.561,-9343.827,512
2.441406,4859.789,-9332.357,512
2.443359,4862.753,-9331.352,512
2.445312,4864.469,-9341.335,512
2.447266,4878.649,-9331.493,512
2.449219,4863.899,-9336.721,512
2.451172,4873.595,-9326.578,512
2.453125,4873.113,-9319.886,512
2.455078,4868.208,-9317.547,512
2.457031,4871.314,-9320.273,512
2.458984,4880.152,-9320.859,512
2.460938,4872.619,-9334.815,512
2.462891,4871.764,-9344.663,512
2.464844,4869.144,-9331.746,512
2.466797,4870.661,-9328.713,512
2.46875,4874.92,-9326.63,512
2.470703,4872.39,-9334.29,512
2.472656,4879.184,-9325.271,512
2.474609,4866.107,-9334.769,512
2.476562,4872.512,-9321.581,512
2.478516,4873.049,-9327.63,512
2.480469,4869.831,-9326.427,512
2.482422,4870.057,-9326.31,512
2.484375,4864.705,-9332.845,512
2.486328,4870.078,-9320.657,512
2.488281,4877.622,-9323.921,512
2.490234,4861.074,-9329.888,512
2.492188,4853.739,-9335.739,512
2.494141,4850.658,-9333.983,512
2.496094,4860.995,-9329.505,512
2.498047,4853.928,-9331.168,512
2.5,4862.502,-9323.102,512
2.501953,4871.01,-9317.136,512
2.503906,4877.157,-9310.899,512
2.505859,4882.7,-9314.576,512
2.507812,4882.81,-9320.639,512
2.509766,4884.537,-9316.182,512
2.511719,4880.312,-9324.018,512
2.513672,4873.103,-9329.531,512
2.515625,4885.995,-9313.783,512
2.517578,4880.498,-9315.496,512
2.519531,4877.902,-9318.771,512
2.521484,4876.181,-9317.399,512
2.523438,4870.225,-9309.852,512
2.525391,4880.705,-9302.821,512
2.527344,4870.089,-9307.006,512
2.529297,4898.177,-9288.657,512
2.53125,4903.25,-9303.614,512
2.533203,4909.157,-9293.635,512
2.535156,4892.812,-9324.596,512
2.537109,4901.281,-9344.344,512
2.539062,4926.988,-9346.039,512
2.541016,4937.623,-9363.504,512
2.542969,4955.212,-9406.705,512
2.544922,4971.318,-9441.075,512
2.546875,4987.067,-9467.211,512
2.548828,5013.465,-9483.725,512
2.550781,5038.215,-9499.502,512
2.552734,5044.099,-9517.844,512
2.554688,5052.098,-9528.301,512
2.556641,5056.789,-9542.965,512
2.558594,5050.406,-9563.227,512
2.560547,5044.369,-9552.549,512
2.5625,5020.088,-9537.369,512
2.564453,5006.758,-9511.635,512
2.566406,5013.355,-9472.611,512
2.568359,4997.747,-9453.36,512
2.570312,4966.133,-9440.865,512
2.572266,4938.038,-9411.292,512
2.574219,4904.126,-9396.547,512
2.576172,4889.34,-9368.281,512
2.578125,4869.523,-9362.284,512
2.580078,4869.842,-9341.479,512
2.582031,4880.691,-9326.283,512
2.583984,4887.01,-9317.53,512
2.585938,4904.889,-9304.092,512
2.587891,4899.746,-9307.056,512
2.589844,4892.61,-9318.04,512
2.591797,4903.456,-9309.48,512
2.59375,4898.437,-9308.389,512
2.595703,4886.308,-9318.483,512
2.597656,4881.686,-9311.377,512
2.599609,4879.139,-9311.459,512
2.601562,4878.524,-9317.371,512
2.603516,4888.244,-9306.535,512
2.605469,4896.796,-9305.729,512
2.607422,4895.923,-9309.953,512
2.609375,4901.34,-9309.884,512
2.611328,4879.514,-9329.286,512
2.613281,4867.659,-9322.766,512
2.615234,4866.835,-9327.232,512
2.617188,4867.591,-9326.195,512
2.619141,4874.918,-9321.954,512
2.621094,4881.091,-9330.107,512
2.623047,4861.121,-9337.97,512
2.625,4862.507,-9340.074,512
2.626953,4866.782,-9339.163,512
2.628906,4865.08,-9333.508,512
2.630859,4860.13,-9338.631,512
2.632812,4871.078,-9326.014,512
2.634766,4885.1,-9315.963,512
2.636719,4871.232,-9331.92,512
2.638672,4874.349,-9320.994,512
2.640625,4867.876,-9326.076,512
2.642578,4864.076,-9331.28,512
2.644531,4863.118,-9326.771,512
2.646484,4847.987,-9340.126,512
2.648438,4855.816,-9328.599,512
2.650391,4854.338,-9332.649,512
2.652344,4861.447,-9323.032,512
2.654297,4866.002,-9316.212,512
2.65625,4876.626,-9323.982,512
2.658203,4879.674,-9336.016,512
2.660156,4881.32,-9326.954,512
2.662109,4866.262,-9342.314,512
2.664062,4870.08,-9341.673,512
2.666016,4881.506,-9332.132,512
2.667969,4875.719,-9331.73,512
2.669922,4881.372,-9326.827,512
2.671875,4896.944,-9315.933,512
2.673828,4882.617,-9331.411,512
2.675781,4860.527,-9350.191,512
2.677734,4852.307,-9341.91,512
2.679688,4863.127,-9330.587,512
2.681641,4879.62,-9320.154,512
2.683594,4870.809,-9335.853,512
2.685547,4869.761,-9326.79,512
2.6875,4870.099,-9324.058,512
2.689453,4878.689,-9312.439,512
2.691406,4888.52,-9303.526,512
2.693359,4876.709,-9331.41,512
2.695312,4879.743,-9335.744,512
2.697266,4876.404,-9338.134,512
2.699219,4868.688,-9346.536,512
2.701172,4889.054,-9334.98,512
2.703125,4897.873,-9324.144,512
2.705078,4910.667,-9321.204,512
2.707031,4899.248,-9315.419,512
2.708984,4873.708,-9330.899,512
2.710938,4874.129,-9340.591,512
2.712891,4871.4,-9334.672,512
2.714844,4876.76,-9329.36,512
2.716797,4889.309,-9321.431,512
2.71875,4874.771,-9334.307,512
2.720703,4874.81,-9339.983,512
2.722656,4871.074,-9337.918,512
2.724609,4874.563,-9339.325,512
2.726562,4869.389,-9345.982,512
2.728516,4875.427,-9333.546,512
2.730469,4856.943,-9338.492,512
2.732422,4850.175,-9348.815,512
2.734375,4862.235,-9346.189,512
2.736328,4877.829,-9337.465,512
2.738281,4903.453,-9333.817,512
2.740234,4902.895,-9332.199,512
2.742188,4885.512,-9338.964,512
2.744141,4873.228,-9345.131,512
2.746094,4878.679,-9343.095,512
2.748047,4861.045,-9355.14,512
2.75,4855.01,-9358.696,512
2.751953,4873.305,-9342.2,512
2.753906,4887.381,-9336.339,512
2.755859,4890.882,-9340.034,512
2.757812,4892.614,-9345.46,512
2.759766,4891.419,-9345.605,512
2.761719,4906.954,-9336.139,512
2.763672,4906.147,-9349.659,512
2.765625,4912.991,-9346.32,512
2.767578,4901.072,-9354.966,512
2.769531,4907.652,-9362.814,512
2.771484,4923.352,-9336.34,512
2.773438,4915.604,-9339.018,512
2.775391,4901.655,-9350.444,512
2.777344,4905.021,-9347.723,512
2.779297,4893.992,-9353.035,512
2.78125,4892.011,-9364.929,512
2.783203,4898.425,-9364.003,512
2.785156,4900.18,-9362.099,512
2.787109,4899.028,-9366.516,512
2.789062,4917.542,-9347.66,512
2.791016,4909.54,-9356.09,512
2.792969,4908.688,-9365.203,512
2.794922,4909.919,-9368.717,512
2.796875,4906.161,-9371.209,512
2.798828,4912.434,-9371.686,512
2.800781,4912.567,-9369.29,512
2.802734,4923.051,-9359.437,512
2.804688,4924.93,-9358.238,512
2.806641,4926.278,-9358.592,512
2.808594,4921.239,-9366.514,512
2.810547,4916.537,-9370.719,512
2.8125,4923.267,-9368.237,512
2.814453,4914.266,-9374.105,512
2.816406,4938.008,-9360.045,512
2.818359,4934.785,-9366.58,512
2.820312,4920.339,-9377.154,512
2.822266,4932.329,-9366.705,512
2.824219,4938.911,-9360.237,512
2.826172,4943.548,-9360.348,512
2.828125,4940.883,-9368.247,512
2.830078,4933.258,-9368.423,512
2.832031,4939.703,-9371.095,512
2.833984,4946.973,-9357.623,512
2.835938,4954.47,-9353.028,512
2.837891,4949.328,-9363.007,512
2.839844,4941.715,-9359.117,512
2.841797,4940.362,-9365.201,512
2.84375,4921.482,-9384.646,512
2.845703,4929.631,-9372.921,512
2.847656,4935.604,-9371.359,512
2.849609,4949.963,-9361.647,512
2.851562,4951.274,-9350.056,512
2.853516,4939.654,-9360.364,512
2.855469,4931.72,-9368.72,512
2.857422,4927.807,-9367.531,512
2.859375,4923.821,-9368.312,512
2.861328,4921.233,-9374.744,512
2.863281,4915.484,-9375.863,512
2.865234,4928.66,-9374.008,512
2.867188,4937.84,-9356.815,512
2.869141,4927.848,-9355.885,512
2.871094,4917.324,-9359.916,512
2.873047,4906.966,-9360.957,512
2.875,4908.411,-9353.444,512
2.876953,4909.528,-9357.723,512
2.878906,4899.807,-9368.366,512
2.880859,4904.913,-9351.46,512
2.882812,4905.812,-9344.839,512
2.884766,4879.403,-9355.945,512
2.886719,4885.013,-9355.607,512
2.888672,4899.466,-9350.062,512
2.890625,4901.126,-9346.513,512
2.892578,4871.883,-9364.756,512
2.894531,4843.078,-9366.538,512
2.896484,4826.711,-9368.439,512
2.898438,4833.409,-9365.293,512
2.900391,4863.732,-9354.766,512
2.902344,4885.045,-9346.388,512
2.904297,4898.336,-9338.656,512
2.90625,4903,-9334.729,512
2.908203,4895.579,-9344.241,512
2.910156,4900.387,-9343.771,512
2.912109,4889.938,-9348.364,512
2.914062,4880.015,-9353.796,512
2.916016,4881.718,-9350.696,512
2.917969,4897.068,-9348.666,512
2.919922,4903.062,-9341.503,512
2.921875,4906.065,-9330.393,512
2.923828,4883.466,-9352.932,512
2.925781,4892.967,-9352.143,512
2.927734,4888.337,-9348.368,512
2.929688,4876.857,-9361.236,512
2.931641,4882.914,-9355.674,512
2.933594,4874.319,-9357.564,512
2.935547,4870.286,-9360.718,512
2.9375,4867.461,-9357.148,512
2.939453,4868.755,-9348.053,512
2.941406,4860.375,-9358.388,512
2.943359,4877.473,-9350.888,512
2.945312,4887.426,-9340.101,512
2.947266,4865.516,-9359.178,512
2.949219,4863.018,-9352.468,512
2.951172,4864.057,-9343.11,512
2.953125,4849.613,-9356.918,512
2.955078,4864.638,-9352.028,512
2.957031,4868.477,-9357.788,512
2.958984,4865.9,-9358.977,512
2.960938,4873.869,-9341.341,512
2.962891,4854.691,-9349.034,512
2.964844,4854.334,-9357.474,512
2.966797,4863.892,-9349.68,512
2.96875,4863.321,-9348.931,512
2.970703,4868.044,-9367.12,512
2.972656,4884.022,-9356.101,512
2.974609,4871.977,-9358.462,512
2.976562,4870.431,-9355.379,512
2.978516,4871.714,-9360.819,512
2.980469,4865.327,-9367.353,512
2.982422,4873.162,-9357.649,512
2.984375,4882.195,-9341.891,512
2.986328,4881.307,-9339.022,512
2.988281,4883.184,-9337.84,512
2.990234,4874.251,-9342.178,512
2.992188,4880.295,-9342.132,512
2.994141,4880.609,-9349.592,512
2.996094,4876.554,-9356.573,512
2.998047,4875.715,-9354.079,512
3,4879.624,-9347.129,512
3.001953,4883.08,-9348.58,512
3.003906,4872.824,-9351.638,512
3.005859,4859.96,-9349.417,512
3.007812,4857.674,-9341.076,512
3.009766,4854.285,-9339.134,512
3.011719,4858.706,-9350.292,512
3.013672,4869.456,-9360.578,512
3.015625,4881.966,-9365.513,512
3.017578,4892.157,-9356.801,512
3.019531,4902.833,-9334.807,512
3.021484,4893.932,-9345.145,512
3.023438,4890.054,-9345.962,512
3.025391,4891.911,-9347.057,512
3.027344,4879.774,-9359.885,512
3.029297,4872.606,-9365.312,512
3.03125,4870.963,-9365.046,512
3.033203,4874.411,-9359.419,512
3.035156,4880.243,-9348.213,512
3.037109,4886.042,-9343.224,512
3.039062,4877.795,-9351.963,512
3.041016,4878.794,-9357.495,512
3.042969,4883.793,-9350.443,512
3.044922,4853.807,-9367.696,512
3.046875,4850.844,-9361.385,512
3.048828,4862.16,-9348.927,512
3.050781,4882.143,-9352.664,512
3.052734,4889.167,-9355.712,512
3.054688,4885.34,-9353.263,512
3.056641,4870.451,-9361.577,512
3.058594,4867.849,-9363.032,512
3.060547,4870.165,-9371.157,512
3.0625,4872.892,-9373.249,512
3.064453,4866.582,-9376.317,512
3.066406,4868.951,-9371.549,512
3.068359,4881.155,-9359.844,512
3.070312,4865.119,-9365.708,512
3.072266,4874.739,-9364.69,512
3.074219,4894.786,-9352.659,512
3.076172,4873.278,-9369.168,512
3.078125,4874.022,-9361.293,512
3.080078,4882.188,-9352.318,512
3.082031,4868.555,-9373.385,512
3.083984,4868.144,-9368.944,512
3.085938,4878.329,-9356.436,512
3.087891,4866.13,-9367.845,512
3.089844,4863.039,-9370.085,512
3.091797,4873.944,-9366.767,512
3.09375,4870.987,-9368.606,512
3.095703,4865.752,-9372.776,512
3.097656,4861.381,-9374.565,512
3.099609,4870.746,-9361.86,512
3.101562,4869.088,-9366.264,512
3.103516,4869.489,-9368.824,512
3.105469,4881.492,-9362.395,512
3.107422,4878.54,-9361.6,512
3.109375,4884.056,-9359.355,512
3.111328,4884.739,-9363.103,512
3.113281,4877.847,-9362.466,512
3.115234,4872.426,-9356.899,512
3.117188,4854.981,-9361.253,512
3.119141,4871.976,-9338.662,512
3.121094,4873.305,-9345.397,512
3.123047,4856.434,-9373.336,512
3.125,4859.502,-9362.458,512
3.126953,4868.331,-9361.332,512
3.128906,4870.264,-9361.995,512
3.130859,4889.588,-9346.268,512
3.132812,4882.545,-9354.384,512
3.134766,4865.997,-9361.149,512
3.136719,4878.386,-9344.004,512
3.138672,4885.943,-9344.495,512
3.140625,4884.149,-9348.738,512
3.142578,4871.431,-9362.417,512
3.144531,4869.221,-9367.048,512
3.146484,4865.768,-9373.425,512
3.148438,4866.502,-9363.86,512
3.150391,4868.278,-9365.214,512
3.152344,4871.901,-9356.1,512
3.154297,4866.702,-9355.692,512
3.15625,4877.192,-9348.501,512
3.158203,4869.072,-9358.824,512
3.160156,4863.393,-9364.785,512
3.162109,4876.211,-9353.991,512
3.164062,4866.885,-9360.287,512
3.166016,4876.5,-9349.281,512
3.167969,4872.272,-9347.666,512
3.169922,4864.154,-9352.928,512
3.171875,4864.937,-9356.429,512
3.173828,4879.5,-9344.692,512
3.175781,4873.892,-9349.266,512
3.177734,4866.242,-9356.203,512
3.179688,4868.989,-9351.22,512
3.181641,4871.056,-9355.14,512
3.183594,4879.119,-9349.554,512
3.185547,4869.968,-9355.465,512
3.1875,4868.246,-9365.934,512
3.189453,4860.75,-9360.276,512
3.191406,4861.001,-9364.542,512
3.193359,4867.168,-9366.642,512
3.195312,4860.284,-9368.79,512
3.197266,4863.117,-9373.797,512
3.199219,4863.294,-9359.598,512
3.201172,4862.706,-9356.748,512
3.203125,4865.776,-9360.575,512
3.205078,4869.062,-9360.037,512
3.207031,4848.785,-9363.625,512
3.208984,4859.995,-9348.382,512
3.210938,4881.586,-9341.89,512
3.212891,4865.126,-9357.297,512
3.214844,4868.322,-9354.097,512
3.216797,4877.988,-9341.986,512
3.21875,4879.888,-9342.495,512
3.220703,4882.737,-9342.237,512
3.222656,4886.729,-9339.455,512
3.224609,4879.164,-9351.5,512
3.226562,4892.211,-9344.149,512
3.228516,4889.208,-9342.743,512
3.230469,4875.952,-9356.675,512
3.232422,4872.539,-9358.807,512
3.234375,4878.109,-9348.124,512
3.236328,4876.134,-9343.599,512
3.238281,4849.546,-9362.224,512
3.240234,4859.893,-9356.06,512
3.242188,4857.422,-9357.97,512
3.244141,4872.61,-9356.852,512
3.246094,4880.324,-9345.33,512
3.248047,4865.778,-9356.034,512
3.25,4859.237,-9360.464,512
3.251953,4872.565,-9342.06,512
3.253906,4873.679,-9342.828,512
3.255859,4863.042,-9347.791,512
3.257812,4869.175,-9345.638,512
3.259766,4872.214,-9351.697,512
3.261719,4866.315,-9355.605,512
3.263672,4862.884,-9350.888,512
3.265625,4862.979,-9352.338,512
3.267578,4859.614,-9347.696,512
3.269531,4858.258,-9331.858,512
3.271484,4853.438,-9338.061,512
3.273438,4858.088,-9351.047,512
3.275391,4857.066,-9351.779,512
3.277344,4863.174,-9347.039,512
3.279297,4864.641,-9348.383,512
3.28125,4865.932,-9344.799,512
3.283203,4856.414,-9348.175,512
3.285156,4865.566,-9346.493,512
3.287109,4854.795,-9357.125,512
3.289062,4850.778,-9357.606,512
3.291016,4863.697,-9354.127,512
3.292969,4858.888,-9351.982,512
3.294922,4862.516,-9343.773,512
3.296875,4862.53,-9350.117,512
3.298828,4866.49,-9356.834,512
3.300781,4874.979,-9355.49,512
3.302734,4891.644,-9352.743,512
3.304688,4905.39,-9352.232,512
3.306641,4908.599,-9355.598,512
3.308594,4908.806,-9359.867,512
3.310547,4901.351,-9371.334,512
3.3125,4896.856,-9376.796,512
3.314453,4892.019,-9386.364,512
3.316406,4899.719,-9385.628,512
3.318359,4910.335,-9379.891,512
3.320312,4910.838,-9380.672,512
3.322266,4925.456,-9371.403,512
3.324219,4917.42,-9367.913,512
3.326172,4899.71,-9378.039,512
3.328125,4896.588,-9372.08,512
3.330078,4880.764,-9377.866,512
3.332031,4884.783,-9380.07,512
3.333984,4883.184,-9376.408,512
3.335938,4887.894,-9374.337,512
3.337891,4888.49,-9370.092,512
3.339844,4874.092,-9369.793,512
3.341797,4865.616,-9375.592,512
3.34375,4859.24,-9379.604,512
3.345703,4862.442,-9379.564,512
3.347656,4855.565,-9382.253,512
3.349609,4870.884,-9379.532,512
3.351562,4862.296,-9378.938,512
3.353516,4851.688,-9366.034,512
3.355469,4839.426,-9368.285,512
3.357422,4837.462,-9363.182,512
3.359375,4850.068,-9355.817,512
3.361328,4853.143,-9365.374,512
3.363281,4837.869,-9381.34,512
3.365234,4841.409,-9378.393,512
3.367188,4840.834,-9373.551,512
3.369141,4840.26,-9367.183,512
3.371094,4844.494,-9370.201,512
3.373047,4847.449,-9367.978,512
3.375,4827.432,-9375.771,512
3.376953,4835.383,-9376.55,512
3.378906,4828.517,-9383.711,512
3.380859,4819.169,-9391.532,512
3.382812,4821.637,-9383.439,512
3.384766,4797.525,-9386.896,512
3.386719,4812.175,-9370.418,512
3.388672,4801.091,-9382.948,512
3.390625,4816.533,-9379.999,512
3.392578,4832.749,-9376.78,512
3.394531,4850.995,-9375.179,512
3.396484,4863.802,-9370.146,512
3.398438,4855.571,-9374.111,512
3.400391,4840.273,-9374.934,512
3.402344,4844.722,-9358.344,512
3.404297,4840.374,-9361.821,512
3.40625,4845.085,-9365.259,512
3.408203,4840.708,-9379.811,512
3.410156,4841.65,-9375.365,512
3.412109,4843.226,-9370.258,512
3.414062,4846.495,-9369.182,512
3.416016,4853.271,-9365.158,512
3.417969,4849.552,-9370.135,512
3.419922,4836.21,-9380.776,512
3.421875,4837.107,-9375.531,512
3.423828,4841.618,-9367.283,512
3.425781,4838.889,-9370.389,512
3.427734,4827.515,-9384.768,512
3.429688,4834.525,-9384.675,512
3.431641,4837.299,-9374.452,512
3.433594,4836.577,-9368.558,512
3.435547,4839.956,-9355.071,512
3.4375,4840.148,-9363.726,512
3.439453,4837.851,-9370.501,512
3.441406,4849.728,-9369.318,512
3.443359,4865.607,-9361.827,512
3.445312,4860.666,-9353.007,512
3.447266,4859.48,-9349.769,512
3.449219,4865.664,-9339.296,512
3.451172,4866.121,-9342.182,512
3.453125,4872.832,-9346.638,512
3.455078,4885.933,-9355.995,512
3.457031,4890.936,-9376.378,512
3.458984,4889.245,-9409.939,512
3.460938,4906.941,-9439.247,512
3.462891,4925.337,-9468.86,512
3.464844,4960.239,-9487.728,512
3.466797,4992.348,-9509.875,512
3.46875,5013.987,-9538.933,512
3.470703,5041.659,-9560.688,512
3.472656,5052.621,-9570.938,512
3.474609,5046.108,-9599.04,512
3.476562,5040.838,-9612.012,512
3.478516,5020.8,-9627.24,512
3.480469,5014.99,-9626,512
3.482422,4992.923,-9610.597,512
3.484375,4969.17,-9584.71,512
3.486328,4960.09,-9546.21,512
3.488281,4957.375,-9520.674,512
3.490234,4931.455,-9497.318,512
3.492188,4905.106,-9472.337,512
3.494141,4872.778,-9442.714,512
3.496094,4839.207,-9427.593,512
3.498047,4822.04,-9418.025,512
3.5,4824.107,-9394.221,512
3.501953,4831.289,-9383.085,512
3.503906,4849.641,-9372.544,512
3.505859,4839.379,-9381.824,512
3.507812,4844.204,-9392.516,512
3.509766,4849.221,-9381.406,512
3.511719,4846.898,-9377.131,512
3.513672,4842.24,-9380.134,512
3.515625,4862.282,-9362.871,512
3.517578,4875.357,-9351.348,512
3.519531,4869.479,-9347.769,512
3.521484,4862.427,-9347.683,512
3.523438,4871.645,-9339.867,512
3.525391,4866.998,-9341.787,512
3.527344,4863.057,-9341.955,512
3.529297,4854.28,-9352.893,512
3.53125,4859.75,-9351.948,512
3.533203,4863.052,-9353.431,512
3.535156,4879.198,-9349.615,512
3.537109,4869.118,-9351.3,512
3.539062,4879.331,-9338.335,512
3.541016,4871.827,-9342.771,512
3.542969,4862.682,-9353.615,512
3.544922,4855.586,-9360.947,512
3.546875,4870.013,-9354.938,512
3.548828,4853.765,-9362.906,512
3.550781,4859.049,-9359.739,512
3.552734,4872.994,-9345.052,512
3.554688,4869.15,-9346.261,512
3.556641,4862.758,-9348.563,512
3.558594,4852.856,-9354.047,512
3.560547,4844.947,-9358.545,512
3.5625,4850.729,-9345.679,512
3.564453,4862.211,-9347.376,512
3.566406,4873.45,-9341.965,512
3.568359,4878.271,-9336.694,512
3.570312,4871.655,-9346.449,512
3.572266,4873.259,-9334.547,512
3.574219,4870.23,-9334.693,512
3.576172,4860.406,-9344.755,512
3.578125,4858.546,-9352.232,512
3.580078,4854.798,-9351.548,512
3.582031,4849.128,-9356.197,512
3.583984,4864.781,-9343.604,512
3.585938,4865.82,-9335.7,512
3.587891,4862.714,-9342.538,512
3.589844,4863.457,-9342.36,512
3.591797,4868.536,-9339.946,512
3.59375,4865.906,-9346.14,512
3.595703,4859.914,-9350.282,512
3.597656,4865.329,-9344.002,512
3.599609,4853.579,-9350.205,512
3.601562,4852.535,-9343.397,512
3.603516,4854.309,-9345.333,512
3.605469,4850.011,-9342.858,512
3.607422,4848.289,-9342.447,512
3.609375,4847.558,-9350.747,512
3.611328,4870.537,-9346.706,512
3.613281,4880.643,-9342.991,512
3.615234,4892.206,-9333.002,512
3.617188,4888.332,-9343.768,512
3.619141,4887.318,-9348.653,512
3.621094,4873.204,-9352.053,512
3.623047,4880.431,-9349.026,512
3.625,4893.961,-9335.873,512
3.626953,4891.229,-9339.83,512
3.628906,4893.455,-9344.196,512
3.630859,4884.096,-9345.897,512
3.632812,4860.657,-9356.23,512
3.634766,4856.118,-9358.313,512
3.636719,4857.181,-9360.571,512
3.638672,4873.765,-9350.959,512
3.640625,4881.647,-9350.957,512
3.642578,4881.181,-9353.833,512
3.644531,4864.362,-9359.645,512
3.646484,4865.571,-9350.778,512
3.648438,4853.01,-9368.378,512
3.650391,4853.435,-9364.532,512
3.652344,4863.509,-9357.443,512
3.654297,4864.019,-9367.815,512
3.65625,4878.063,-9349.83,512
3.658203,4867.03,-9361.746,512
3.660156,4864.783,-9366.765,512
3.662109,4867.829,-9368.552,512
3.664062,4871.164,-9367.664,512
3.666016,4875.417,-9362.656,512
3.667969,4884.137,-9355.034,512
3.669922,4865.673,-9381.648,512
3.671875,4874.952,-9370.318,512
3.673828,4877.143,-9363.769,512
3.675781,4884.395,-9356.553,512
3.677734,4860.443,-9365.574,512
3.679688,4850.265,-9377.658,512
3.681641,4857.802,-9374.838,512
3.683594,4869.609,-9366.969,512
3.685547,4876.987,-9369.628,512
3.6875,4884.204,-9365.857,512
3.689453,4888.584,-9359.132,512
3.691406,4887.274,-9357.229,512
3.693359,4883.429,-9356.085,512
3.695312,4888.256,-9350.947,512
3.697266,4886.268,-9355.565,512
3.699219,4889.315,-9358.527,512
3.701172,4902.082,-9352.541,512
3.703125,4909.999,-9352.916,512
3.705078,4918.496,-9342.093,512
3.707031,4912.597,-9342.01,512
3.708984,4903.831,-9348.048,512
3.710938,4914.559,-9340.468,512
3.712891,4895.816,-9359.262,512
3.714844,4901.106,-9355.276,512
3.716797,4894.628,-9348.381,512
3.71875,4896.042,-9352.394,512
3.720703,4900.802,-9360.101,512
3.722656,4904.56,-9355.885,512
3.724609,4924.597,-9347.279,512
3.726562,4911.225,-9358.724,512
3.728516,4902.517,-9361.016,512
3.730469,4924.11,-9349.128,512
3.732422,4911,-9358.04,512
3.734375,4912.042,-9353.713,512
3.736328,4923.476,-9354.143,512
3.738281,4939.787,-9344.871,512
3.740234,4947.522,-9340.734,512
3.742188,4931.232,-9357.816,512
3.744141,4929.054,-9360.884,512
3.746094,4925.695,-9358.614,512
3.748047,4921.82,-9357.771,512
3.75,4912.738,-9354.556,512
3.751953,4913.729,-9355.885,512
3.753906,4920.023,-9360.422,512
3.755859,4939.49,-9355.277,512
3.757812,4938.997,-9357.946,512
3.759766,4926.748,-9365.938,512
3.761719,4927.315,-9368.064,512
3.763672,4921.693,-9379.032,512
3.765625,4930.397,-9371.241,512
3.767578,4932.725,-9374.55,512
3.769531,4937.044,-9371.281,512
3.771484,4934.68,-9370.598,512
3.773438,4921.272,-9380.351,512
3.775391,4918.084,-9381.696,512
3.777344,4921.12,-9373.93,512
3.779297,4925.563,-9367.661,512
3.78125,4924.872,-9362.944,512
3.783203,4912.667,-9368.803,512
3.785156,4916.402,-9358.343,512
3.787109,4925.992,-9343.542,512
3.789062,4921.661,-9344.007,512
3.791016,4908.331,-9350.933,512
3.792969,4905.712,-9359.994,512
3.794922,4910.244,-9353.505,512
3.796875,4895.197,-9366.416,512
3.798828,4895.174,-9367.795,512
3.800781,4897.147,-9354.111,512
3.802734,4890.271,-9355.023,512
3.804688,4883.721,-9355.278,512
3.806641,4883.181,-9352.601,512
3.808594,4877.654,-9354.46,512
3.810547,4867.86,-9355.808,512
3.8125,4867.477,-9360.982,512
3.814453,4869.336,-9357.334,512
3.816406,4864.037,-9361.314,512
3.818359,4867.265,-9349.617,512
3.820312,4863.943,-9345.743,512
3.822266,4857.789,-9350.68,512
3.824219,4859.666,-9346.085,512
3.826172,4850.148,-9346.887,512
3.828125,4851.965,-9342.767,512
3.830078,4841.389,-9348.565,512
3.832031,4844.742,-9344.907,512
3.833984,4847.695,-9342.273,512
3.835938,4864.969,-9344.061,512
3.837891,4871.987,-9339.185,512
3.839844,4873.068,-9334.422,512
3.841797,4867.886,-9336.281,512
3.84375,4868.629,-9332.758,512
3.845703,4854.574,-9359.069,512
3.847656,4851.429,-9358.164,512
3.849609,4847.873,-9354.796,512
3.851562,4855.917,-9343.442,512
3.853516,4875.354,-9327.418,512
3.855469,4869.326,-9345.104,512
3.857422,4874.438,-9338.554,512
3.859375,4872.134,-9342.858,512
3.861328,4865.985,-9345.751,512
3.863281,4852.407,-9344.426,512
3.865234,4854.521,-9336.021,512
3.867188,4860.814,-9337.584,512
3.869141,4874.981,-9337.385,512
3.871094,4899.438,-9327.177,512
3.873047,4872.149,-9342.646,512
3.875,4876.439,-9340.862,512
3.876953,4874.975,-9338.963,512
3.878906,4866.771,-9345.679,512
3.880859,4857.176,-9350.321,512
3.882812,4862.582,-9339.499,512
3.884766,4860.86,-9340.793,512
3.886719,4854.789,-9346.784,512
3.888672,4861.825,-9334.586,512
3.890625,4857.087,-9338.31,512
3.892578,4861.204,-9331.323,512
3.894531,4858.06,-9329.512,512
3.896484,4849.693,-9344.075,512
3.898438,4854.366,-9338.419,512
3.900391,4858.065,-9335.388,512
3.902344,4863.326,-9340.126,512
3.904297,4861.821,-9338.223,512
3.90625,4860.862,-9343.903,512
3.908203,4867.439,-9340.904,512
3.910156,4866.333,-9341.921,512
3.912109,4852.326,-9350.593,512
3.914062,4857.537,-9342.622,512
3.916016,4849.802,-9348.878,512
3.917969,4851.264,-9349.402,512
3.919922,4853.81,-9349.076,512
3.921875,4856.162,-9347.488,512
3.923828,4854.273,-9347.195,512
3.925781,4848.357,-9351.613,512
3.927734,4854.39,-9344.882,512
3.929688,4849.612,-9349.505,512
3.931641,4851.367,-9350.421,512
3.933594,4857.393,-9340.8,512
3.935547,4849.998,-9344.668,512
3.9375,4840.263,-9352.483,512
3.939453,4845.425,-9349.41,512
3.941406,4845.841,-9351.921,512
3.943359,4848.102,-9346.152,512
3.945312,4852.919,-9346.297,512
3.947266,4856.113,-9346.766,512
3.949219,4852.883,-9350.199,512
3.951172,4846.25,-9350.652,512
3.953125,4844.866,-9351.41,512
3.955078,4852.896,-9343.62,512
3.957031,4854.48,-9337.854,512
3.958984,4855.363,-9334.729,512
3.960938,4856.363,-9331.371,512
3.962891,4855.704,-9338.426,512
3.964844,4852.561,-9342.169,512
3.966797,4855.562,-9340.307,512
3.96875,4865.825,-9325.602,512
3.970703,4857.239,-9331.241,512
3.972656,4858.307,-9333.743,512
3.974609,4857.765,-9331.549,512
3.976562,4858.079,-9334.699,512
3.978516,4853.608,-9340.711,512
3.980469,4847.951,-9347.327,512
3.982422,4846.35,-9357.517,512
3.984375,4850.152,-9351.043,512
3.986328,4846.053,-9346.989,512
3.988281,4844.801,-9353.059,512
3.990234,4854.606,-9340.144,512
3.992188,4850.249,-9348.14,512
3.994141,4832.186,-9371.397,512
3.996094,4849.075,-9358.841,512
3.998047,4849.906,-9355.905,512
4,4838.696,-9358.43,512
4.001953,4831.636,-9350.645,512
4.003906,4827.073,-9351.959,512
4.005859,4843.286,-9345.68,512
4.007812,4849.419,-9345.676,512
4.009766,4850.573,-9352.097,512
4.011719,4842.97,-9358.224,512
4.013672,4831.392,-9369.221,512
4.015625,4830.431,-9362.117,512
4.017578,4829.909,-9358.653,512
4.019531,4829.656,-9352.306,512
4.021484,4839.268,-9336.25,512
4.023438,4838.705,-9344.574,512
4.025391,4845.617,-9351.191,512
4.027344,4850.725,-9351.857,512
4.029297,4850.556,-9350.154,512
4.03125,4849.466,-9338.205,512
4.033203,4831.01,-9337.247,512
4.035156,4833.684,-9334.611,512
4.037109,4837.499,-9335.023,512
4.039062,4848.809,-9331.397,512
4.041016,4856.337,-9330.553,512
4.042969,4853.663,-9332.534,512
4.044922,4857.5,-9332.572,512
4.046875,4857.655,-9335.934,512
4.048828,4847.896,-9348.117,512
4.050781,4846.293,-9349.18,512
4.052734,4836.564,-9345.599,512
4.054688,4841.81,-9336.368,512
4.056641,4852.94,-9332.546,512
4.058594,4850.33,-9341.344,512
4.060547,4864.499,-9350.455,512
4.0625,4866.223,-9344.896,512
4.064453,4857.862,-9345.573,512
4.066406,4846.888,-9351.153,512
4.068359,4846.903,-9343.563,512
4.070312,4833.024,-9349.167,512
4.072266,4833.261,-9347.733,512
4.074219,4844.217,-9332.964,512
4.076172,4841.803,-9342.355,512
4.078125,4841.941,-9345.721,512
4.080078,4834.714,-9352.536,512
4.082031,4829.076,-9361.772,512
4.083984,4844.38,-9351.148,512
4.085938,4858.887,-9338.471,512
4.087891,4845.031,-9343.399,512
4.089844,4856.481,-9328.259,512
4.091797,4852.729,-9324.04,512
4.09375,4837.206,-9332.871,512
4.095703,4825.848,-9340.848,512
4.097656,4812.336,-9335.618,512
4.099609,4804.449,-9345.501,512
4.101562,4810.615,-9344.782,512
4.103516,4823.938,-9335.948,512
4.105469,4831.733,-9335.038,512
4.107422,4838.587,-9332.207,512
4.109375,4840.213,-9340.204,512
4.111328,4847.306,-9347.812,512
4.113281,4842.127,-9346.472,512
4.115234,4839.309,-9338.581,512
4.117188,4839.623,-9337.924,512
4.119141,4845.753,-9342.711,512
4.121094,4855.223,-9340.571,512
4.123047,4867.938,-9336.351,512
4.125,4862.413,-9331.14,512
4.126953,4848.017,-9339.662,512
4.128906,4853.23,-9343.216,512
4.130859,4858.61,-9345.686,512
4.132812,4862.69,-9348.091,512
4.134766,4874.017,-9338.42,512
4.136719,4860.562,-9338.87,512
4.138672,4852.827,-9332.732,512
4.140625,4847.197,-9325.995,512
4.142578,4828.868,-9332.44,512
4.144531,4833.077,-9330.099,512
4.146484,4832.608,-9336.095,512
4.148438,4850.328,-9334.895,512
4.150391,4868.973,-9329.718,512
4.152344,4851.686,-9336.795,512
4.154297,4846.657,-9334.364,512
4.15625,4856.386,-9326.102,512
4.158203,4852.99,-9330.766,512
4.160156,4851.188,-9330.548,512
4.162109,4847.182,-9339.529,512
4.164062,4835.756,-9350.643,512
4.166016,4846.212,-9343.308,512
4.167969,4860.443,-9328.836,512
4.169922,4855.312,-9330.166,512
4.171875,4843.238,-9334.724,512
4.173828,4841.492,-9334.585,512
4.175781,4833.922,-9342.855,512
4.177734,4840.298,-9343.744,512
4.179688,4826.415,-9344.104,512
4.181641,4823.424,-9334.277,512
4.183594,4814.058,-9336.66,512
4.185547,4807.945,-9349.776,512
4.1875,4823.081,-9340.592,512
4.189453,4863.14,-9323.095,512
4.191406,4867.163,-9332.611,512
4.193359,4868.919,-9340.417,512
4.195312,4880.691,-9339.351,512
4.197266,4879.876,-9346.765,512
4.199219,4877.643,-9340.887,512
4.201172,4854.961,-9346.239,512
4.203125,4829.592,-9347.724,512
4.205078,4827.824,-9339.629,512
4.207031,4831.948,-9342.533,512
4.208984,4845.38,-9342.281,512
4.210938,4862.357,-9352.279,512
4.212891,4869.963,-9349.155,512
4.214844,4876.522,-9347.287,512
4.216797,4875.007,-9345.253,512
4.21875,4877.329,-9332.665,512
4.220703,4870.161,-9327.596,512
4.222656,4863.812,-9330.384,512
4.224609,4860.233,-9337.123,512
4.226562,4854.52,-9333.766,512
4.228516,4848.028,-9340.655,512
4.230469,4841.393,-9342.403,512
4.232422,4842.961,-9336.958,512
4.234375,4847.354,-9340.485,512
4.236328,4859.946,-9337.324,512
4.238281,4873.208,-9332.877,512
4.240234,4880.026,-9333.935,512
4.242188,4869.985,-9341.493,512
4.244141,4870.017,-9332.316,512
4.246094,4860.915,-9338.783,512
4.248047,4836.69,-9351.229,512
4.25,4846.607,-9330.285,512
4.251953,4842.843,-9334.529,512
4.253906,4845.115,-9327.019,512
4.255859,4848.801,-9332.613,512
4.257812,4856.308,-9332.061,512
4.259766,4847.335,-9333.381,512
4.261719,4850.455,-9335.038,512
4.263672,4849.89,-9341.837,512
4.265625,4858.451,-9339.479,512
4.267578,4851.634,-9334.94,512
4.269531,4831.044,-9337.72,512
4.271484,4834.431,-9331.235,512
4.273438,4850.595,-9324.521,512
4.275391,4851.079,-9331.938,512
4.277344,4861.351,-9337.805,512
4.279297,4867.563,-9332.515,512
4.28125,4868.633,-9336.294,512
4.283203,4860.115,-9343.935,512
4.285156,4881.626,-9328.347,512
4.287109,4893.74,-9322.639,512
4.289062,4894.782,-9323.783,512
4.291016,4898.49,-9326.18,512
4.292969,4889.219,-9326.525,512
4.294922,4878.581,-9327.813,512
4.296875,4873.041,-9330.617,512
4.298828,4890.959,-9337.813,512
4.300781,4907.98,-9343.996,512
4.302734,4927.388,-9337.304,512
4.304688,4918.517,-9341.663,512
4.306641,4910.609,-9342.88,512
4.308594,4907.716,-9343.614,512
4.310547,4891.147,-9352.922,512
4.3125,4893.171,-9348.716,512
4.314453,4899.301,-9341.147,512
4.316406,4892.21,-9339.086,512
4.318359,4883.749,-9330.79,512
4.320312,4875.352,-9328.304,512
4.322266,4878.331,-9334.905,512
4.324219,4886.854,-9340.1,512
4.326172,4879.123,-9347.272,512
4.328125,4874.305,-9347.615,512
4.330078,4869.257,-9352.195,512
4.332031,4879.73,-9338.016,512
4.333984,4882.281,-9335.387,512
4.335938,4875.824,-9336.495,512
4.337891,4874.758,-9343.857,512
4.339844,4864.326,-9338.196,512
4.341797,4861.902,-9325.743,512
4.34375,4835.161,-9338.24,512
4.345703,4826.341,-9334.865,512
4.347656,4830.178,-9333.866,512
4.349609,4845.5,-9321.157,512
4.351562,4861.926,-9319.633,512
4.353516,4875.034,-9319.867,512
4.355469,4845.09,-9333.601,512
4.357422,4845.404,-9326.194,512
4.359375,4854.322,-9320.728,512
4.361328,4839.817,-9333.821,512
4.363281,4840.97,-9334.972,512
4.365234,4854.935,-9323.003,512
4.367188,4855.59,-9321.807,512
4.369141,4847.706,-9328.078,512
4.371094,4850.161,-9330.717,512
4.373047,4851.936,-9325.196,512
4.375,4847.789,-9328.731,512
4.376953,4861.493,-9323.742,512
4.378906,4837.388,-9349.968,512
4.380859,4841.44,-9341.939,512
4.382812,4855.33,-9324.65,512
4.384766,4848.281,-9323.282,512
4.386719,4843.213,-9326.742,512
4.388672,4838.387,-9326.707,512
4.390625,4854.065,-9313.584,512
4.392578,4854.106,-9319.858,512
4.394531,4854.587,-9322.919,512
4.396484,4847.386,-9320.858,512
4.398438,4830.8,-9321.361,512
4.400391,4831.808,-9313.863,512
4.402344,4836.888,-9315.263,512
4.404297,4849.707,-9317.031,512
4.40625,4863.916,-9313.091,512
4.408203,4859.891,-9310.086,512
4.410156,4840.356,-9320.875,512
4.412109,4827.241,-9331.485,512
4.414062,4835.257,-9332.103,512
4.416016,4852.433,-9321.814,512
4.417969,4851.826,-9317.521,512
4.419922,4846.309,-9325.214,512
4.421875,4856.682,-9318.317,512
4.423828,4855.252,-9322.26,512
4.425781,4847.591,-9326.158,512
4.427734,4856.258,-9322.409,512
4.429688,4865.991,-9316.624,512
4.431641,4864.128,-9307.545,512
4.433594,4857.047,-9300.877,512
4.435547,4861.15,-9294.544,512
4.4375,4869.626,-9298.981,512
4.439453,4889.969,-9291.483,512
4.441406,4897.489,-9309.8,512
4.443359,4903.496,-9326.662,512
4.445312,4895.729,-9349.775,512
4.447266,4894.355,-9375.772,512
4.449219,4916.678,-9405.197,512
4.451172,4957.353,-9426.335,512
4.453125,5008.784,-9443.8,512
4.455078,5048.625,-9459.863,512
4.457031,5067.43,-9496.357,512
4.458984,5086.054,-9518.761,512
4.460938,5081.516,-9548.166,512
4.462891,5097.047,-9551.147,512
4.464844,5079.331,-9561.608,512
4.466797,5071.722,-9565.678,512
4.46875,5065.299,-9546.089,512
4.470703,5032.478,-9531.125,512
4.472656,5015.669,-9512.168,512
4.474609,5006.039,-9487.517,512
4.476562,4993.109,-9453.073,512
4.478516,4961.989,-9428.127,512
4.480469,4918.868,-9398.306,512
4.482422,4882.669,-9372.822,512
4.484375,4865.288,-9354.227,512
4.486328,4861.991,-9330.125,512
4.488281,4852.713,-9328.704,512
4.490234,4861.378,-9313.372,512
4.492188,4853.521,-9318.872,512
4.494141,4853.405,-9334.945,512
4.496094,4865.465,-9327.73,512
4.498047,4870.187,-9319.277,512
4.5,4866.036,-9320.595,512
4.501953,4867.211,-9321.319,512
4.503906,4869.628,-9314.636,512
4.505859,4841.771,-9327.459,512
4.507812,4836.186,-9318.338,512
4.509766,4843.674,-9318.601,512
4.511719,4838.629,-9331.932,512
4.513672,4856.006,-9323.115,512
4.515625,4858.47,-9319.741,512
4.517578,4859.19,-9312.007,512
4.519531,4863.18,-9316.504,512
4.521484,4887.062,-9308.834,512
4.523438,4900.075,-9306.333,512
4.525391,4881.574,-9310.523,512
4.527344,4878.226,-9308.281,512
4.529297,4874.093,-9315.523,512
4.53125,4874.679,-9316.99,512
4.533203,4867.955,-9317.295,512
4.535156,4866.737,-9309.671,512
4.537109,4865.306,-9299.094,512
4.539062,4863.405,-9305.637,512
4.541016,4856.547,-9318.891,512
4.542969,4863.168,-9320.612,512
4.544922,4886.847,-9314.591,512
4.546875,4895.742,-9317.412,512
4.548828,4903.22,-9314.283,512
4.550781,4889.976,-9316.501,512
4.552734,4888.949,-9314.146,512
4.554688,4879.568,-9316.23,512
4.556641,4861.44,-9319.57,512
4.558594,4857.641,-9320.432,512
4.560547,4871.869,-9320.979,512
4.5625,4880.852,-9321.32,512
4.564453,4884.799,-9327.065,512
4.566406,4888.278,-9330.996,512
4.568359,4885.09,-9325.179,512
4.570312,4882.937,-9319.282,512
4.572266,4888.155,-9311.047,512
4.574219,4879.07,-9318.479,512
4.576172,4877.878,-9317.328,512
4.578125,4868.367,-9329.564,512
4.580078,4866.154,-9330.233,512
4.582031,4880.211,-9321.584,512
4.583984,4888.224,-9311.925,512
4.585938,4887.712,-9319.342,512
4.587891,4879.279,-9319.002,512
4.589844,4867.848,-9322.453,512
4.591797,4865.058,-9320.478,512
4.59375,4875.813,-9314.749,512
4.595703,4873.905,-9328.149,512
4.597656,4868.617,-9327.127,512
4.599609,4868.263,-9320.269,512
4.601562,4858.071,-9319.473,512
4.603516,4860.214,-9317.104,512
4.605469,4862.739,-9323.959,512
4.607422,4888.626,-9307.921,512
4.609375,4880.086,-9310.759,512
4.611328,4855.019,-9317.879,512
4.613281,4860.168,-9325.317,512
4.615234,4873.39,-9318.202,512
4.617188,4873.995,-9325.354,512
4.619141,4877.055,-9331.019,512
4.621094,4886.95,-9328.685,512
4.623047,4892.783,-9323.813,512
4.625,4887.079,-9323.132,512
4.626953,4864.276,-9327.865,512
4.628906,4865.336,-9319.941,512
4.630859,4863.117,-9325.202,512
4.632812,4868.103,-9325.9,512
4.634766,4880.703,-9324.766,512
4.636719,4892.625,-9320.53,512
4.638672,4872.028,-9339.611,512
4.640625,4884.817,-9334.55,512
4.642578,4880.666,-9333.578,512
4.644531,4870.588,-9338.528,512
4.646484,4898.654,-9322.47,512
4.648438,4895.767,-9333.538,512
4.650391,4896.345,-9320.567,512
4.652344,4893.687,-9322.694,512
4.654297,4888.021,-9340.37,512
4.65625,4897.542,-9330.944,512
4.658203,4879.417,-9336.3,512
4.660156,4875.416,-9333.417,512
4.662109,4873.534,-9333.171,512
4.664062,4866.906,-9340.048,512
4.666016,4853.944,-9351.493,512
4.667969,4872.189,-9343.515,512
4.669922,4886.109,-9334.565,512
4.671875,4882.177,-9336.906,512
4.673828,4891.53,-9335.526,512
4.675781,4890.268,-9333.192,512
4.677734,4901.544,-9333.202,512
4.679688,4903.2,-9336.782,512
4.681641,4898.829,-9341.516,512
4.683594,4903.905,-9330.362,512
4.685547,4899.27,-9338.56,512
4.6875,4903.178,-9332.291,512
4.689453,4911.868,-9327.579,512
4.691406,4901.472,-9330.056,512
4.693359,4890.214,-9336.246,512
4.695312,4895.487,-9331.363,512
4.697266,4888.226,-9332.431,512
4.699219,4897.49,-9334.138,512
4.701172,4901.169,-9338.786,512
4.703125,4907.161,-9340.997,512
4.705078,4903.697,-9340.688,512
4.707031,4902.379,-9335.005,512
4.708984,4912.715,-9338.442,512
4.710938,4921.446,-9341.414,512
4.712891,4934.985,-9340.445,512
4.714844,4943.476,-9336.354,512
4.716797,4930.273,-9332.174,512
4.71875,4928.575,-9329.985,512
4.720703,4921.513,-9334.172,512
4.722656,4920.897,-9331.498,512
4.724609,4927.249,-9325.262,512
4.726562,4921.122,-9338.848,512
4.728516,4910.685,-9356.551,512
4.730469,4917.607,-9360.448,512
4.732422,4931.307,-9362.235,512
4.734375,4937.833,-9354.404,512
4.736328,4944.565,-9348.886,512
4.738281,4946.054,-9350.64,512
4.740234,4944.318,-9355.199,512
4.742188,4945.357,-9349.133,512
4.744141,4940.525,-9349.074,512
4.746094,4935.184,-9352.198,512
4.748047,4939.017,-9354.143,512
4.75,4933.711,-9359.44,512
4.751953,4935.139,-9361.991,512
4.753906,4939.84,-9360.151,512
4.755859,4948.335,-9359.932,512
4.757812,4951.308,-9359.363,512
4.759766,4947.339,-9352.733,512
4.761719,4940.101,-9354.423,512
4.763672,4933.3,-9349.749,512
4.765625,4929.423,-9360.719,512
4.767578,4931.212,-9355.155,512
4.769531,4927.098,-9357.057,512
4.771484,4929.46,-9348.582,512
4.773438,4925.424,-9347.931,512
4.775391,4927.345,-9350.878,512
4.777344,4919.45,-9354.004,512
4.779297,4913.384,-9355.275,512
4.78125,4922.876,-9345.955,512
4.783203,4916.701,-9341.417,512
4.785156,4899.297,-9350.522,512
4.787109,4904.916,-9351.869,512
4.789062,4905.269,-9350.575,512
4.791016,4899.148,-9352.652,512
4.792969,4904.99,-9348.932,512
4.794922,4896.477,-9348.743,512
4.796875,4897.36,-9347.986,512
4.798828,4896.506,-9350.741,512
4.800781,4883.384,-9355.1,512
4.802734,4868.482,-9352.283,512
4.804688,4862.893,-9340.438,512
4.806641,4866.688,-9338.354,512
4.808594,4887.619,-9330.818,512
4.810547,4892.382,-9340.627,512
4.8125,4889.059,-9350.201,512
4.814453,4895.262,-9332.553,512
4.816406,4899.098,-9327.926,512
4.818359,4875.42,-9345.712,512
4.820312,4870.483,-9340.234,512
4.822266,4863.966,-9334.853,512
4.824219,4865.319,-9333.466,512
4.826172,4873.885,-9332.442,512
4.828125,4873.227,-9337.137,512
4.830078,4872.919,-9350.575,512
4.832031,4883.96,-9335.94,512
4.833984,4879.648,-9334.326,512
4.835938,4878.966,-9334.858,512
4.837891,4870.717,-9342.247,512
4.839844,4873.785,-9337.442,512
4.841797,4878.68,-9332.737,512
4.84375,4872.4,-9342.522,512
4.845703,4868.77,-9343.899,512
4.847656,4863.537,-9351.353,512
4.849609,4872.178,-9342.318,512
4.851562,4879.417,-9336.804,512
4.853516,4874.273,-9337.611,512
4.855469,4859.92,-9343.054,512
4.857422,4870.875,-9333.429,512
4.859375,4870.738,-9335.052,512
4.861328,4858.925,-9351.334,512
4.863281,4871.707,-9337.368,512
4.865234,4866.869,-9341.127,512
4.867188,4872.849,-9336.738,512
4.869141,4870.018,-9337.504,512
4.871094,4859.513,-9346.839,512
4.873047,4862.319,-9340.014,512
4.875,4866.015,-9339.022,512
4.876953,4869.12,-9335.613,512
4.878906,4870.335,-9333.194,512
4.880859,4865.171,-9340.969,512
4.882812,4870.718,-9333.165,512
4.884766,4876.514,-9330.932,512
4.886719,4872.594,-9331.242,512
4.888672,4870.456,-9332.878,512
4.890625,4874.121,-9328.632,512
4.892578,4868.455,-9337.404,512
4.894531,4865.462,-9341.291,512
4.896484,4867.797,-9338.071,512
4.898438,4873.471,-9333.046,512
4.900391,4872.111,-9328.459,512
4.902344,4871.325,-9326.99,512
4.904297,4866.198,-9333.364,512
4.90625,4867.39,-9336.594,512
4.908203,4865.084,-9343.706,512
4.910156,4859.928,-9347.621,512
4.912109,4865.533,-9346.315,512
4.914062,4871.861,-9341.687,512
4.916016,4869.442,-9341.807,512
4.917969,4875.134,-9338.887,512
4.919922,4887.5,-9326.636,512
4.921875,4879.173,-9330.749,512
4.923828,4866.134,-9335.312,512
4.925781,4857.167,-9353.648,512
4.927734,4871.167,-9346.538,512
4.929688,4863.459,-9352.309,512
4.931641,4864.544,-9350.091,512
4.933594,4864.091,-9347.172,512
4.935547,4862.092,-9340.18,512
4.9375,4860.667,-9345.815,512
4.939453,4856.234,-9356.514,512
4.941406,4857.094,-9360.905,512
4.943359,4870.436,-9350.159,512
4.945312,4863.257,-9355.192,512
4.947266,4873.545,-9341.815,512
4.949219,4860.225,-9353.614,512
4.951172,4854.814,-9357.3,512
4.953125,4868.104,-9343.53,512
4.955078,4847.127,-9348.239,512
4.957031,4822.562,-9348.647,512
4.958984,4786.317,-9357.348,512
4.960938,4782.535,-9349.688,512
4.962891,4779.551,-9356.206,512
4.964844,4825.785,-9352.064,512
4.966797,4866.205,-9347.393,512
4.96875,4884.668,-9348.395,512
4.970703,4895.864,-9348.293,512
4.972656,4888.996,-9351.928,512
4.974609,4882.336,-9352.994,512
4.976562,4869.865,-9349.777,512
4.978516,4848.355,-9360.302,512
4.980469,4851.642,-9352.153,512
4.982422,4857.16,-9350.974,512
4.984375,4880.107,-9348.308,512
4.986328,4896.442,-9335.562,512
4.988281,4877.453,-9343.854,512
4.990234,4878.389,-9334.813,512
4.992188,4873.955,-9336.976,512
4.994141,4856.938,-9340.442,512
4.996094,4864.551,-9330.517,512
4.998047,4862.548,-9333.659,512
5,4859.953,-9336.843,512
5.001953,4863.789,-9333.497,512
5.003906,4854.225,-9346.261,512
5.005859,4861.09,-9338.889,512
5.007812,4850.539,-9345.3,512
5.009766,4854.217,-9341.976,512
5.011719,4848.9,-9342.603,512
5.013672,4855.624,-9344.887,512
5.015625,4867.673,-9338.41,512
5.017578,4867.965,-9342.802,512
5.019531,4871.875,-9337.405,512
5.021484,4861.743,-9345.348,512
5.023438,4860.042,-9345.433,512
5.025391,4853.092,-9351.021,512
5.027344,4850.426,-9351.413,512
5.029297,4849.705,-9345.602,512
5.03125,4846.219,-9347.735,512
5.033203,4853.561,-9337.631,512
5.035156,4859.196,-9325.271,512
5.037109,4845.872,-9332.429,512
5.039062,4846.579,-9331.845,512
5.041016,4839.745,-9324.646,512
5.042969,4822.689,-9340.474,512
5.044922,4829.354,-9345.736,512
5.046875,4834.206,-9343.347,512
5.048828,4859.492,-9332.751,512
5.050781,4861.726,-9337.298,512
5.052734,4854.458,-9347.345,512
5.054688,4862.757,-9337.772,512
5.056641,4877.917,-9327.934,512
5.058594,4877.222,-9331.085,512
5.060547,4864.32,-9336.284,512
5.0625,4852.35,-9346.551,512
5.064453,4859.541,-9337.123,512
5.066406,4853.144,-9342.033,512
5.068359,4867.58,-9327.944,512
5.070312,4865.87,-9331.168,512
5.072266,4856.545,-9341.2,512
5.074219,4854.344,-9335.56,512
5.076172,4847.157,-9340.493,512
5.078125,4844.733,-9346.606,512
5.080078,4845.393,-9341.574,512
5.082031,4851.807,-9336.732,512
5.083984,4847.033,-9338.937,512
5.085938,4857.248,-9328.915,512
5.087891,4852.329,-9337.876,512
5.089844,4851.135,-9343.581,512
5.091797,4855.925,-9341.21,512
5.09375,4858.28,-9343.461,512
5.095703,4859.339,-9343.312,512
5.097656,4858.717,-9340.261,512
5.099609,4860.744,-9338.787,512
5.101562,4862.704,-9330.008,512
5.103516,4854.67,-9338.127,512
5.105469,4855.386,-9341.89,512
5.107422,4859.342,-9336.946,512
5.109375,4850.332,-9339.99,512
5.111328,4851.047,-9341.853,512
5.113281,4843.48,-9344.077,512
5.115234,4829.823,-9355.496,512
5.117188,4840.696,-9342.159,512
5.119141,4851.301,-9338.082,512
5.121094,4852.502,-9334.691,512
5.123047,4863.393,-9324.301,512
5.125,4857.159,-9338.255,512
5.126953,4855.21,-9336.534,512
5.128906,4864.806,-9327.547,512
5.130859,4858.763,-9336.344,512
5.132812,4850.99,-9345.812,512
5.134766,4855.635,-9332.791,512
5.136719,4855.323,-9327.225,512
5.138672,4865.106,-9325.844,512
5.140625,4865.86,-9321.505,512
5.142578,4864.263,-9322.278,512
5.144531,4859.442,-9332.838,512
5.146484,4862.449,-9330.625,512
5.148438,4868.688,-9325.979,512
5.150391,4857.844,-9331.291,512
5.152344,4866.192,-9322.536,512
5.154297,4856.741,-9325.928,512
5.15625,4850.229,-9328.853,512
5.158203,4861.141,-9326.314,512
5.160156,4866.802,-9333.395,512
5.162109,4869.422,-9328.758,512
5.164062,4864.903,-9336.217,512
5.166016,4856.992,-9343.726,512
5.167969,4870.491,-9336.614,512
5.169922,4868.822,-9333.55,512
5.171875,4875.649,-9322.243,512
5.173828,4874.67,-9323.663,512
5.175781,4862.5,-9337.436,512
5.177734,4865.074,-9333.243,512
5.179688,4861.515,-9332.874,512
5.181641,4860.778,-9332.979,512
5.183594,4861.59,-9333.645,512
5.185547,4858.559,-9335.547,512
5.1875,4855.846,-9335.88,512
5.189453,4857.242,-9336.839,512
5.191406,4870.677,-9325.682,512
5.193359,4860.307,-9332.678,512
5.195312,4856.4,-9335.776,512
5.197266,4854.417,-9331.874,512
5.199219,4854.562,-9333.378,512
5.201172,4850.968,-9331.833,512
5.203125,4845.894,-9329.51,512
5.205078,4854.562,-9323.05,512
5.207031,4859.291,-9326.334,512
5.208984,4867.818,-9324.672,512
5.210938,4866.651,-9329.943,512
5.212891,4851.347,-9337.345,512
5.214844,4854.97,-9333.882,512
5.216797,4865.018,-9329.558,512
5.21875,4871.264,-9318.189,512
5.220703,4860.932,-9321.775,512
5.222656,4854.05,-9317.513,512
5.224609,4846.936,-9316.419,512
5.226562,4843.8,-9327.201,512
5.228516,4859.5,-9328.364,512
5.230469,4859.686,-9337.491,512
5.232422,4842.622,-9343.981,512
5.234375,4846.247,-9332.455,512
5.236328,4855.365,-9325.53,512
5.238281,4867.212,-9320.396,512
5.240234,4878.031,-9318.277,512
5.242188,4876.775,-9322.986,512
5.244141,4868.361,-9336.593,512
5.246094,4860.434,-9341.285,512
5.248047,4859.355,-9343.283,512
5.25,4859.732,-9342.799,512
5.251953,4864.459,-9337.947,512
5.253906,4879.583,-9326.726,512
5.255859,4871.476,-9330.926,512
5.257812,4859.813,-9339.396,512
5.259766,4874.708,-9330.004,512
5.261719,4866.916,-9335.911,512
5.263672,4866.823,-9331.665,512
5.265625,4862.207,-9332.481,512
5.267578,4848.27,-9337.105,512
5.269531,4851.083,-9334.158,512
5.271484,4848.629,-9342.329,512
5.273438,4856.714,-9338.816,512
5.275391,4867.219,-9340.105,512
5.277344,4859.548,-9350.315,512
5.279297,4862.96,-9341.828,512
5.28125,4849.448,-9342.007,512
5.283203,4852.097,-9339.109,512
5.285156,4853.056,-9337.984,512
5.287109,4860.253,-9331.328,512
5.289062,4866.209,-9328.85,512
5.291016,4848.925,-9340.893,512
5.292969,4847.827,-9332.271,512
5.294922,4850.575,-9339.996,512
5.296875,4854.559,-9345.733,512
5.298828,4861.973,-9349.944,512
5.300781,4868.357,-9341.605,512
5.302734,4868.411,-9327.064,512
5.304688,4864.61,-9331.36,512
5.306641,4872.882,-9328.587,512
5.308594,4866.954,-9342.309,512
5.310547,4859.383,-9365.841,512
5.3125,4866.269,-9360.156,512
5.314453,4883.928,-9345.656,512
5.316406,4876.571,-9347.364,512
5.318359,4879.277,-9340.681,512
5.320312,4880.504,-9340.117,512
5.322266,4882.292,-9336.365,512
5.324219,4878.23,-9339.387,512
5.326172,4888.758,-9328.488,512
5.328125,4876.206,-9338.158,512
5.330078,4874.674,-9347.251,512
5.332031,4885.917,-9354.195,512
5.333984,4894.533,-9359.142,512
5.335938,4902.323,-9356.07,512
5.337891,4902.445,-9358.84,512
5.339844,4904.182,-9356.75,512
5.341797,4909.666,-9348.488,512
5.34375,4910.467,-9344.046,512
5.345703,4896.399,-9350.444,512
5.347656,4884.759,-9356.462,512
5.349609,4892.746,-9338.383,512
5.351562,4888.723,-9343.445,512
5.353516,4885.576,-9349.7,512
5.355469,4898.012,-9331.567,512
5.357422,4895.243,-9336.371,512
5.359375,4884.425,-9347.816,512
5.361328,4876.744,-9356.069,512
5.363281,4897.048,-9341.473,512
5.365234,4889.029,-9349.287,512
5.367188,4887.144,-9355.705,512
5.369141,4886.12,-9344.03,512
5.371094,4859.556,-9348.27,512
5.373047,4863.885,-9319.867,512
5.375,4855.236,-9329.248,512
5.376953,4846.886,-9340.518,512
5.378906,4850.144,-9344.304,512
5.380859,4852.418,-9344.699,512
5.382812,4856.543,-9345.283,512
5.384766,4870.402,-9328.393,512
5.386719,4866.699,-9325.459,512
5.388672,4856.464,-9327.726,512
5.390625,4851.865,-9331.942,512
5.392578,4849.645,-9342.735,512
5.394531,4842.739,-9345.022,512
5.396484,4862.679,-9329.3,512
5.398438,4846.022,-9341.084,512
5.400391,4841.395,-9330.359,512
5.402344,4854.995,-9304.777,512
5.404297,4840.034,-9323.624,512
5.40625,4862.08,-9312.282,512
5.408203,4866.351,-9320.222,512
5.410156,4865.61,-9334.145,512
5.412109,4862.621,-9327.418,512
5.414062,4861.574,-9325.063,512
5.416016,4867.498,-9320.51,512
5.417969,4874.421,-9317.953,512
5.419922,4869.356,-9324.707,512
5.421875,4858.458,-9328.099,512
5.423828,4875.557,-9316.255,512
5.425781,4862.121,-9323,512
5.427734,4848.87,-9327.019,512
5.429688,4845.3,-9328.909,512
5.431641,4841.432,-9334.028,512
5.433594,4843.832,-9333.954,512
5.435547,4857.514,-9321.367,512
5.4375,4861.55,-9321.37,512
5.439453,4847.72,-9327.289,512
5.441406,4827.234,-9341.484,512
5.443359,4824.104,-9347.334,512
5.445312,4830.361,-9346.551,512
5.447266,4847.206,-9338.472,512
5.449219,4845.669,-9339.784,512
5.451172,4859.281,-9340.496,512
5.453125,4851.792,-9336.934,512
5.455078,4848.693,-9342.094,512
5.457031,4852.598,-9345.415,512
5.458984,4858.506,-9338.455,512
5.460938,4870.943,-9335.139,512
5.462891,4868.795,-9339.613,512
5.464844,4876.985,-9327.037,512
5.466797,4881.441,-9316.287,512
5.46875,4885.027,-9316.939,512
5.470703,4894.584,-9324.171,512
5.472656,4889.749,-9335.871,512
5.474609,4885.968,-9350.316,512
5.476562,4883.45,-9369.268,512
5.478516,4894.907,-9393.069,512
5.480469,4917.729,-9425.624,512
5.482422,4962.645,-9447.154,512
5.484375,5014.063,-9466.5,512
5.486328,5048.039,-9499.748,512
5.488281,5069.848,-9529.228,512
5.490234,5070.093,-9551.583,512
5.492188,5071.278,-9574.827,512
5.494141,5068.781,-9594.343,512
5.496094,5054.965,-9601.783,512
5.498047,5051.342,-9590.972,512
5.5,5028.748,-9563.309,512
5.501953,5019.673,-9523.892,512
5.503906,4994.129,-9506.9,512
5.505859,4960.692,-9495.572,512
5.507812,4954.433,-9453.69,512
5.509766,4921.366,-9428.282,512
5.511719,4894.876,-9393.996,512
5.513672,4866.281,-9376.005,512
5.515625,4867.855,-9359.667,512
5.517578,4865.025,-9342.643,512
5.519531,4855.168,-9341.618,512
5.521484,4865.635,-9324.159,512
5.523438,4859.107,-9324.071,512
5.525391,4865.269,-9326.04,512
5.527344,4885.202,-9316.702,512
5.529297,4886.995,-9325.11,512
5.53125,4887.765,-9325.361,512
5.533203,4889.618,-9318.996,512
5.535156,4881.451,-9318.394,512
5.537109,4881.613,-9313.749,512
5.539062,4871.653,-9317.919,512
5.541016,4862.691,-9311.576,512
5.542969,4861.429,-9311.949,512
5.544922,4859.098,-9317.907,512
5.546875,4870.612,-9317.683,512
5.548828,4882.499,-9321.162,512
5.550781,4886.459,-9312.104,512
5.552734,4881.259,-9309.583,512
5.554688,4880.028,-9310.893,512
5.556641,4881.459,-9311.164,512
5.558594,4880.882,-9318.837,512
5.560547,4882.697,-9320.347,512
5.5625,4890.146,-9312.44,512
5.564453,4874.048,-9320.021,512
5.566406,4865.875,-9318.754,512
5.568359,4859.092,-9316.464,512
5.570312,4868.337,-9308.56,512
5.572266,4871.814,-9310.689,512
5.574219,4885.124,-9304.26,512
5.576172,4876.177,-9319.689,512
5.578125,4870.043,-9325.733,512
5.580078,4874.183,-9328.119,512
5.582031,4873.999,-9319.532,512
5.583984,4878.502,-9310.683,512
5.585938,4880.824,-9312.023,512
5.587891,4874.299,-9320.326,512
5.589844,4882.223,-9313.662,512
5.591797,4892.534,-9303.647,512
5.59375,4886.744,-9314.716,512
5.595703,4871.924,-9331.53,512
5.597656,4886.461,-9319.704,512
5.599609,4889.674,-9324.565,512
5.601562,4883.746,-9325.081,512
5.603516,4867.541,-9337.523,512
5.605469,4871.914,-9326.222,512
5.607422,4866.236,-9311.931,512
5.609375,4859.373,-9322.213,512
5.611328,4869.547,-9317.093,512
5.613281,4873.938,-9318.873,512
5.615234,4881.607,-9321.66,512
5.617188,4891.271,-9324.163,512
5.619141,4901.754,-9310.209,512
5.621094,4907.549,-9304.046,512
5.623047,4891.467,-9309.026,512
5.625,4874.988,-9316.749,512
5.626953,4873.436,-9322.314,512
5.628906,4888.371,-9319.438,512
5.630859,4887.665,-9324.993,512
5.632812,4875.669,-9326.176,512
5.634766,4881.027,-9313.164,512
5.636719,4884.15,-9313.374,512
5.638672,4890.231,-9314.568,512
5.640625,4904.387,-9328.604,512
5.642578,4887.995,-9329.212,512
5.644531,4877.68,-9339.114,512
5.646484,4862.914,-9346.303,512
5.648438,4876.772,-9331.435,512
5.650391,4880.52,-9331.409,512
5.652344,4876.943,-9333.633,512
5.654297,4884.736,-9327.94,512
5.65625,4890.97,-9323.915,512
5.658203,4881.737,-9333.26,512
5.660156,4882.099,-9330.589,512
5.662109,4883.131,-9333.329,512
5.664062,4892.7,-9328.303,512
5.666016,4890.988,-9329.466,512
5.667969,4894.482,-9325.321,512
5.669922,4884.547,-9323.09,512
5.671875,4877.106,-9330.906,512
5.673828,4874.306,-9337.933,512
5.675781,4894.589,-9327.286,512
5.677734,4909.912,-9319.979,512
5.679688,4904.067,-9329.459,512
5.681641,4894.155,-9333.04,512
5.683594,4888.419,-9335.514,512
5.685547,4898.926,-9331.328,512
5.6875,4883.447,-9329.126,512
5.689453,4882.622,-9329.502,512
5.691406,4889.931,-9327.667,512
5.693359,4899.673,-9334.931,512
5.695312,4889.974,-9341.619,512
5.697266,4894.6,-9349.054,512
5.699219,4914.133,-9327.352,512
5.701172,4903.07,-9344.604,512
5.703125,4897.738,-9344.503,512
5.705078,4896.429,-9335.294,512
5.707031,4897.476,-9336.482,512
5.708984,4892.89,-9347.688,512
5.710938,4887.067,-9347.737,512
5.712891,4878.196,-9344.553,512
5.714844,4870.804,-9349.208,512
5.716797,4882.461,-9353.122,512
5.71875,4896.453,-9357.112,512
5.720703,4910.686,-9346.506,512
5.722656,4935.295,-9336.177,512
5.724609,4914.195,-9357.485,512
5.726562,4930.069,-9347.788,512
5.728516,4936.973,-9346.323,512
5.730469,4918.16,-9363.062,512
5.732422,4920.907,-9355.209,512
5.734375,4921.192,-9353.52,512
5.736328,4929.827,-9342.642,512
5.738281,4916.897,-9346.606,512
5.740234,4906.845,-9353.373,512
5.742188,4922.503,-9349.745,512
5.744141,4930.102,-9347.206,512
5.746094,4929.976,-9355.028,512
5.748047,4927.574,-9362.569,512
5.75,4937.292,-9358.444,512
5.751953,4926.232,-9365.229,512
5.753906,4919.066,-9360.869,512
5.755859,4925.709,-9348.806,512
5.757812,4924.09,-9355.319,512
5.759766,4922.8,-9370.123,512
5.761719,4932.125,-9365.351,512
5.763672,4931.966,-9368.04,512
5.765625,4926.074,-9379.667,512
5.767578,4929.859,-9363.535,512
5.769531,4918.827,-9361.551,512
5.771484,4918.394,-9365.152,512
5.773438,4927.7,-9366.593,512
5.775391,4931.014,-9368.554,512
5.777344,4942.852,-9368.684,512
5.779297,4953.855,-9355.121,512
5.78125,4949.873,-9357.109,512
5.783203,4964.721,-9350.69,512
5.785156,4962.713,-9356.283,512
5.787109,4968.775,-9342.268,512
5.789062,4963.909,-9345.681,512
5.791016,4951.442,-9357.964,512
5.792969,4950.45,-9360.556,512
5.794922,4940.869,-9363.771,512
5.796875,4946.153,-9350.104,512
5.798828,4947.276,-9339.708,512
5.800781,4941.582,-9357.085,512
5.802734,4935.396,-9361.844,512
5.804688,4933.748,-9362.574,512
5.806641,4946.883,-9359.802,512
5.808594,4930.885,-9353.642,512
5.810547,4913.294,-9354.778,512
5.8125,4890.433,-9362.696,512
5.814453,4891.134,-9356.625,512
5.816406,4908.633,-9343.799,512
5.818359,4909.804,-9347.63,512
5.820312,4926.332,-9327.194,512
5.822266,4912.318,-9323.976,512
5.824219,4899.559,-9341.925,512
5.826172,4901.298,-9348.238,512
5.828125,4901.087,-9338.436,512
5.830078,4904.114,-9336.037,512
5.832031,4893.223,-9341.982,512
5.833984,4900.535,-9343.425,512
5.835938,4897.284,-9344.382,512
5.837891,4892.644,-9329.399,512
5.839844,4901.777,-9329.437,512
5.841797,4894.478,-9340.336,512
5.84375,4880.573,-9348.264,512
5.845703,4862.969,-9342.563,512
5.847656,4872.513,-9348.217,512
5.849609,4883.075,-9334.68,512
5.851562,4882.737,-9329.506,512
5.853516,4869.335,-9336.533,512
5.855469,4869.632,-9334.993,512
5.857422,4871.783,-9331.486,512
5.859375,4868.446,-9333.502,512
5.861328,4861.441,-9341.32,512
5.863281,4873.484,-9337.571,512
5.865234,4867.189,-9348.39,512
5.867188,4883.257,-9335.688,512
5.869141,4882.045,-9334.593,512
5.871094,4876.415,-9340.518,512
5.873047,4884.634,-9332.872,512
5.875,4876.341,-9335.95,512
5.876953,4872.001,-9335.497,512
5.878906,4857.963,-9337.267,512
5.880859,4842.629,-9340.533,512
5.882812,4844.878,-9331.429,512
5.884766,4865.985,-9323.465,512
5.886719,4885.064,-9323.752,512
5.888672,4888.545,-9324.769,512
5.890625,4908.46,-9313.584,512
5.892578,4903.508,-9324.638,512
5.894531,4902.12,-9324.864,512
5.896484,4896.99,-9330.449,512
5.898438,4896.865,-9320.441,512
5.900391,4893.674,-9317.708,512
5.902344,4896.769,-9314.931,512
5.904297,4901.985,-9304.359,512
5.90625,4890.385,-9312.258,512
5.908203,4885.477,-9315.409,512
5.910156,4870.096,-9325.853,512
5.912109,4868.266,-9323.94,512
5.914062,4880.339,-9318.368,512
5.916016,4863.256,-9324.793,512
5.917969,4872.942,-9325.53,512
5.919922,4877.769,-9327.095,512
5.921875,4872.375,-9327.274,512
5.923828,4895.703,-9324.862,512
5.925781,4887.555,-9334.553,512
5.927734,4889.862,-9338.356,512
5.929688,4882.648,-9347.48,512
5.931641,4885.533,-9343.672,512
5.933594,4879.526,-9349.177,512
5.935547,4864.242,-9356.894,512
5.9375,4874.467,-9334.279,512
5.939453,4884.521,-9330.372,512
5.941406,4885.922,-9334.807,512
5.943359,4888.363,-9340.506,512
5.945312,4893.466,-9330.457,512
5.947266,4880.59,-9340.883,512
5.949219,4879.255,-9337.191,512
5.951172,4883.183,-9321.441,512
5.953125,4904.904,-9312.86,512
5.955078,4895.496,-9320.054,512
5.957031,4899.722,-9313.878,512
5.958984,4907.105,-9314.311,512
5.960938,4887.693,-9322.296,512
5.962891,4902.476,-9322.632,512
5.964844,4895.429,-9322.006,512
5.966797,4896.08,-9306.618,512
5.96875,4884.946,-9316.954,512
5.970703,4874.303,-9324.02,512
5.972656,4877.444,-9320.009,512
5.974609,4877.126,-9311.635,512
5.976562,4868.648,-9325.763,512
5.978516,4878.221,-9325.722,512
5.980469,4880.164,-9334.053,512
5.982422,4892.947,-9321.199,512
5.984375,4890.343,-9328.039,512
5.986328,4888.684,-9334.45,512
5.988281,4889.219,-9329.367,512
5.990234,4904.995,-9319.2,512
5.992188,4888.662,-9330.764,512
5.994141,4884.341,-9325.823,512
5.996094,4878.054,-9329.881,512
5.998047,4886.829,-9320.426,512
6,4902.619,-9317.31,512
6.001953,4884.483,-9324.21,512
6.003906,4883.041,-9331.37,512
6.005859,4880.312,-9331.071,512
6.007812,4870.407,-9341.355,512
6.009766,4880.764,-9333.635,512
6.011719,4878.295,-9341.403,512
6.013672,4872.189,-9348.246,512
6.015625,4871.638,-9346.608,512
6.017578,4860.668,-9351.885,512
6.019531,4863.514,-9344.779,512
6.021484,4868.359,-9345.188,512
6.023438,4856.802,-9355.693,512
6.025391,4862.044,-9353.162,512
6.027344,4854.138,-9353.267,512
6.029297,4855.915,-9346.696,512
6.03125,4870.159,-9342.457,512
6.033203,4869.817,-9349.961,512
6.035156,4872.096,-9354.818,512
6.037109,4878.405,-9343.159,512
6.039062,4874.761,-9343.519,512
6.041016,4879.415,-9349.515,512
6.042969,4880.058,-9348.05,512
6.044922,4873.583,-9347.989,512
6.046875,4877.648,-9342.861,512
6.048828,4882.873,-9340.91,512
6.050781,4855.261,-9356.036,512
6.052734,4859.03,-9348.09,512
6.054688,4874.439,-9333.881,512
6.056641,4872.915,-9323.696,512
6.058594,4872.953,-9329.256,512
6.060547,4862.39,-9349.669,512
6.0625,4859.011,-9345.182,512
6.064453,4863.594,-9328.469,512
6.066406,4854.617,-9350.886,512
6.068359,4864.315,-9347.225,512
6.070312,4873.768,-9345.688,512
6.072266,4881.464,-9339.277,512
6.074219,4881.515,-9346.031,512
6.076172,4883.411,-9348.877,512
6.078125,4871.627,-9349.749,512
6.080078,4877.314,-9344,512
6.082031,4875.787,-9343.806,512
6.083984,4866.357,-9347.029,512
6.085938,4862.833,-9360.815,512
6.087891,4866.117,-9354.048,512
6.089844,4867.78,-9345.835,512
6.091797,4840.892,-9362.433,512
6.09375,4816.074,-9383.411,512
6.095703,4820.935,-9363.858,512
6.097656,4838.538,-9365.059,512
6.099609,4833.05,-9374.378,512
6.101562,4856.156,-9363.867,512
6.103516,4862.171,-9368.375,512
6.105469,4873.412,-9367.28,512
6.107422,4877.06,-9375.121,512
6.109375,4866.523,-9386.108,512
6.111328,4870.659,-9370.435,512
6.113281,4859.845,-9369.338,512
6.115234,4852.513,-9369.718,512
6.117188,4847.852,-9369.471,512
6.119141,4847.989,-9366.632,512
6.121094,4839.931,-9368.8,512
6.123047,4842.25,-9371.284,512
6.125,4833.667,-9378.3,512
6.126953,4845.599,-9370.719,512
6.128906,4852.322,-9374.582,512
6.130859,4856.097,-9375.165,512
6.132812,4860.315,-9372.976,512
6.134766,4861.452,-9365.242,512
6.136719,4859.762,-9359.678,512
6.138672,4859.376,-9356.551,512
6.140625,4863.275,-9359.089,512
6.142578,4864.648,-9359.377,512
6.144531,4869.205,-9347.369,512
6.146484,4879.899,-9344.451,512
6.148438,4867.075,-9357.917,512
6.150391,4872.269,-9337.496,512
6.152344,4877.809,-9339.163,512
6.154297,4873.522,-9347.532,512
6.15625,4852.433,-9362.234,512
6.158203,4851.566,-9361.166,512
6.160156,4867.146,-9350.742,512
6.162109,4858.942,-9357.838,512
6.164062,4862.633,-9357.227,512
6.166016,4871.754,-9348.759,512
6.167969,4881.71,-9340.666,512
6.169922,4878.653,-9341.16,512
6.171875,4873.593,-9345.458,512
6.173828,4880.514,-9337.88,512
6.175781,4869.117,-9344.252,512
6.177734,4869.722,-9350.039,512
6.179688,4861.635,-9355.598,512
6.181641,4874.384,-9342.094,512
6.183594,4858.899,-9354.156,512
6.185547,4872.399,-9344.069,512
6.1875,4878.82,-9337.963,512
6.189453,4873.261,-9333.031,512
6.191406,4877.514,-9330.531,512
6.193359,4859.859,-9346.7,512
6.195312,4842.542,-9364.552,512
6.197266,4860.808,-9355.711,512
6.199219,4848.925,-9365.364,512
6.201172,4849.27,-9366.433,512
6.203125,4862.092,-9356.904,512
6.205078,4855.512,-9362.479,512
6.207031,4842.53,-9365.559,512
6.208984,4858.795,-9357.855,512
6.210938,4862.496,-9356.689,512
6.212891,4854.992,-9361.102,512
6.214844,4861.459,-9356.468,512
6.216797,4842.964,-9363.004,512
6.21875,4859.164,-9350.637,512
6.220703,4858.764,-9349.451,512
6.222656,4859.826,-9338.715,512
6.224609,4864.075,-9337.236,512
6.226562,4861.943,-9347.823,512
6.228516,4854.212,-9360.352,512
6.230469,4862.072,-9348.982,512
6.232422,4865.037,-9347.643,512
6.234375,4854.065,-9354.567,512
6.236328,4850.832,-9349.592,512
6.238281,4865.428,-9336.769,512
6.240234,4873.118,-9329.91,512
6.242188,4864.168,-9341.339,512
6.244141,4854.515,-9354.218,512
6.246094,4855.184,-9338.312,512
6.248047,4865.315,-9331.128,512
6.25,4867.301,-9339.061,512
6.251953,4877.632,-9311.763,512
6.253906,4864.546,-9323.809,512
6.255859,4865.062,-9343.214,512
6.257812,4872.414,-9336.471,512
6.259766,4856.724,-9348.307,512
6.261719,4856.991,-9353.051,512
6.263672,4866.956,-9354.686,512
6.265625,4860.83,-9351.47,512
6.267578,4875.623,-9343.29,512
6.269531,4873.764,-9342.541,512
6.271484,4866.274,-9346.35,512
6.273438,4879.444,-9340.096,512
6.275391,4867.466,-9353.059,512
6.277344,4854.183,-9350.699,512
6.279297,4841.22,-9365.76,512
6.28125,4856.598,-9354.293,512
6.283203,4860.64,-9348.682,512
6.285156,4857.499,-9353.128,512
6.287109,4858.287,-9343.826,512
6.289062,4858.868,-9351.077,512
6.291016,4866.015,-9342.166,512
6.292969,4863.942,-9345.636,512
6.294922,4860.632,-9353.966,512
6.296875,4860.427,-9346.516,512
6.298828,4862.577,-9345.687,512
6.300781,4866.053,-9336.954,512
6.302734,4872.287,-9333.335,512
6.304688,4865.185,-9335.219,512
6.306641,4858.702,-9336.194,512
6.308594,4864.502,-9335.004,512
6.310547,4869.116,-9348.018,512
6.3125,4869.708,-9353.405,512
6.314453,4862.81,-9357.18,512
6.316406,4859.031,-9346.526,512
6.318359,4851.312,-9332.14,512
6.320312,4838.906,-9343.849,512
6.322266,4841.088,-9350.321,512
6.324219,4839.166,-9337.785,512
6.326172,4839.546,-9340.569,512
6.328125,4857.747,-9340.055,512
6.330078,4867.981,-9330.772,512
6.332031,4872.493,-9331.018,512
6.333984,4868.534,-9335.076,512
6.335938,4885.058,-9332.523,512
6.337891,4900.533,-9345.767,512
6.339844,4911.925,-9331.062,512
6.341797,4920.628,-9319.504,512
6.34375,4907.629,-9346.93,512
6.345703,4907.991,-9349.617,512
6.347656,4919.819,-9345.595,512
6.349609,4917.841,-9362.357,512
6.351562,4910.489,-9388.319,512
6.353516,4913.171,-9387.76,512
6.355469,4898.756,-9389.783,512
6.357422,4885.266,-9388.181,512
6.359375,4885.264,-9384.791,512
6.361328,4872.951,-9381.51,512
6.363281,4867.74,-9377.188,512
6.365234,4873.254,-9363.698,512
6.367188,4867.881,-9364.181,512
6.369141,4885.575,-9353.352,512
6.371094,4876.11,-9359.681,512
6.373047,4872.897,-9361.304,512
6.375,4884.742,-9363.001,512
6.376953,4886.663,-9358.854,512
6.378906,4883.351,-9356.46,512
6.380859,4887.556,-9356.741,512
6.382812,4900.271,-9347.724,512
6.384766,4884.851,-9349.178,512
6.386719,4876.522,-9346.86,512
6.388672,4864.323,-9368.65,512
6.390625,4860.691,-9350.14,512
6.392578,4862.511,-9348.466,512
6.394531,4850.617,-9359.343,512
6.396484,4845.153,-9343.626,512
6.398438,4836.897,-9340.19,512
6.400391,4829.82,-9339.24,512
6.402344,4825.195,-9334.146,512
6.404297,4808.164,-9341.278,512
6.40625,4821.945,-9331.938,512
6.408203,4842.492,-9339.452,512
6.410156,4855.432,-9339.378,512
6.412109,4864.1,-9339.448,512
6.414062,4869.342,-9332.322,512
6.416016,4848.427,-9333.082,512
6.417969,4850.378,-9337.029,512
6.419922,4860.774,-9338.48,512
6.421875,4867.572,-9338.673,512
6.423828,4869.317,-9338.941,512
6.425781,4870.302,-9328.912,512
6.427734,4860.776,-9338.954,512
6.429688,4856.978,-9346.646,512
6.431641,4856.928,-9337.058,512
6.433594,4866.486,-9328.933,512
6.435547,4863.31,-9344.407,512
6.4375,4860.515,-9341.522,512
6.439453,4851.111,-9354.277,512
6.441406,4844.146,-9368.309,512
6.443359,4840.653,-9345.367,512
6.445312,4843.783,-9359.048,512
6.447266,4853.015,-9363.986,512
6.449219,4840.661,-9358.877,512
6.451172,4852.488,-9345.556,512
6.453125,4846.466,-9354.964,512
6.455078,4841.125,-9352.074,512
6.457031,4835.479,-9355.803,512
6.458984,4836.294,-9361.499,512
6.460938,4835.433,-9352.857,512
6.462891,4839.993,-9360.76,512
6.464844,4845.217,-9343.042,512
6.466797,4834.129,-9345.742,512
6.46875,4826.953,-9361.711,512
6.470703,4841.453,-9347.538,512
6.472656,4844.055,-9351.458,512
6.474609,4847.91,-9356.661,512
6.476562,4856.418,-9362.301,512
6.478516,4843.008,-9360.662,512
6.480469,4853.006,-9353.968,512
6.482422,4870.111,-9338.522,512
6.484375,4874.562,-9340.296,512
6.486328,4877.703,-9345.166,512
6.488281,4892.66,-9334.274,512
6.490234,4901.726,-9347.586,512
6.492188,4915.392,-9367.106,512
6.494141,4925.232,-9378.938,512
6.496094,4932.158,-9405.129,512
6.498047,4950.465,-9426.876,512
6.5,4986.593,-9443.399,512
6.501953,5014.608,-9471.085,512
6.503906,5047.959,-9490.528,512
6.505859,5060.234,-9518.35,512
6.507812,5060.28,-9539.612,512
6.509766,5061.662,-9552.299,512
6.511719,5057.153,-9561.643,512
6.513672,5033.198,-9556.707,512
6.515625,5007.922,-9538.474,512
6.517578,4987.735,-9518.045,512
6.519531,4974.557,-9488.857,512
6.521484,4955.876,-9466.169,512
6.523438,4933.515,-9439.675,512
6.525391,4889.21,-9423.883,512
6.527344,4871.301,-9406.941,512
6.529297,4869.605,-9379.879,512
6.53125,4869.744,-9367.451,512
6.533203,4869.589,-9365.189,512
6.535156,4872.862,-9365.045,512
6.537109,4859.375,-9365.238,512
6.539062,4868.545,-9352.039,512
6.541016,4858.964,-9360.485,512
6.542969,4856.188,-9365.995,512
6.544922,4863.978,-9370.888,512
6.546875,4854.268,-9382.883,512
6.548828,4855.814,-9372.19,512
6.550781,4843.797,-9362.664,512
6.552734,4854.842,-9349.04,512
6.554688,4834.594,-9363.387,512
6.556641,4842.455,-9362.691,512
6.558594,4862.48,-9350.909,512
6.560547,4872.129,-9358.638,512
6.5625,4860.08,-9361.686,512
6.564453,4855.473,-9364.605,512
6.566406,4870.802,-9347.203,512
6.568359,4873.327,-9354.285,512
6.570312,4862.544,-9361.032,512
6.572266,4865.279,-9352.871,512
6.574219,4859.935,-9353.059,512
6.576172,4863.473,-9355.052,512
6.578125,4877.006,-9342.762,512
6.580078,4877.746,-9343.457,512
6.582031,4873.352,-9346.098,512
6.583984,4866.858,-9361.264,512
6.585938,4878.955,-9341.597,512
6.587891,4886.565,-9341.723,512
6.589844,4856.776,-9359.681,512
6.591797,4861.368,-9341.48,512
6.59375,4867.317,-9350.614,512
6.595703,4858.141,-9369.24,512
6.597656,4873.268,-9350.949,512
6.599609,4869.692,-9348.122,512
6.601562,4855.709,-9348.454,512
6.603516,4851.426,-9343.172,512
6.605469,4849.343,-9345.619,512
6.607422,4870.362,-9334.865,512
6.609375,4875.199,-9338.867,512
6.611328,4879.615,-9337.78,512
6.613281,4877.854,-9350.518,512
6.615234,4868.779,-9364.119,512
6.617188,4873.409,-9345.384,512
6.619141,4876.015,-9343.282,512
6.621094,4866.407,-9348.431,512
6.623047,4865.605,-9344.955,512
6.625,4875.821,-9345.712,512
6.626953,4871.6,-9348.487,512
6.628906,4870.181,-9356.957,512
6.630859,4878.869,-9351.257,512
6.632812,4874.797,-9354.246,512
6.634766,4881.729,-9343.048,512
6.636719,4880.368,-9338.979,512
6.638672,4872.431,-9349.707,512
6.640625,4876.057,-9344.534,512
6.642578,4877.407,-9347.779,512
6.644531,4880.888,-9345.844,512
6.646484,4859.011,-9364.445,512
6.648438,4869.325,-9352.646,512
6.650391,4880.04,-9336.115,512
6.652344,4875.417,-9347.953,512
6.654297,4874.417,-9347.517,512
6.65625,4879.753,-9344.731,512
6.658203,4879.485,-9346.982,512
6.660156,4869.829,-9352.935,512
6.662109,4860.842,-9372.539,512
6.664062,4869.346,-9357.969,512
6.666016,4882.472,-9339.876,512
6.667969,4897.559,-9331.064,512
6.669922,4873.856,-9351.338,512
6.671875,4887.181,-9342.402,512
6.673828,4887.642,-9335.428,512
6.675781,4870.106,-9355.927,512
6.677734,4883.49,-9351.831,512
6.679688,4888.073,-9344.116,512
6.681641,4884.924,-9351.93,512
6.683594,4879.046,-9344.338,512
6.685547,4883.715,-9347.322,512
6.6875,4880.957,-9355.744,512
6.689453,4881.047,-9345.919,512
6.691406,4893.263,-9334.77,512
6.693359,4896.377,-9345.491,512
6.695312,4895.043,-9352.567,512
6.697266,4894.256,-9354.095,512
6.699219,4889.939,-9354.113,512
6.701172,4898.418,-9347.882,512
6.703125,4897.911,-9348.398,512
6.705078,4909.754,-9339.133,512
6.707031,4912.449,-9335.879,512
6.708984,4895.2,-9357.101,512
6.710938,4887.979,-9372.133,512
6.712891,4897.739,-9366.129,512
6.714844,4901.36,-9361.148,512
6.716797,4895.38,-9364.541,512
6.71875,4890.194,-9363.206,512
6.720703,4887.814,-9364.308,512
6.722656,4898.648,-9359.765,512
6.724609,4905.129,-9355.115,512
6.726562,4901.06,-9358.298,512
6.728516,4913.521,-9352.072,512
6.730469,4902.339,-9347.108,512
6.732422,4885.95,-9358.384,512
6.734375,4893.432,-9372.923,512
6.736328,4895.681,-9365.466,512
6.738281,4912.415,-9353.65,512
6.740234,4923.906,-9356.463,512
6.742188,4911.341,-9361.94,512
6.744141,4902.888,-9364.27,512
6.746094,4912.329,-9371.889,512
6.748047,4910.042,-9383.935,512
6.75,4915.564,-9384.044,512
6.751953,4940.469,-9358.396,512
6.753906,4936.762,-9369.866,512
6.755859,4942.101,-9370.126,512
6.757812,4941.972,-9387.406,512
6.759766,4948.708,-9378.79,512
6.761719,4941.58,-9382.935,512
6.763672,4921.653,-9383.503,512
6.765625,4908.866,-9377.575,512
6.767578,4908.485,-9378.131,512
6.769531,4923.558,-9375.7,512
6.771484,4938.121,-9374.702,512
6.773438,4944.609,-9375.971,512
6.775391,4943.964,-9375.402,512
6.777344,4942.646,-9381.221,512
6.779297,4947.042,-9373.553,512
6.78125,4947.865,-9362.34,512
6.783203,4936.949,-9377.547,512
6.785156,4953.34,-9372.505,512
6.787109,4966.91,-9368.107,512
6.789062,4969.406,-9377.613,512
6.791016,4973.889,-9376.312,512
6.792969,4940.216,-9394.923,512
6.794922,4953.919,-9376.56,512
6.796875,4952.123,-9374.424,512
6.798828,4939.619,-9387.937,512
6.800781,4960.759,-9374.73,512
6.802734,4953.685,-9378.437,512
6.804688,4947.646,-9377.767,512
6.806641,4951.564,-9375.798,512
6.808594,4944.76,-9389.739,512
6.810547,4935.918,-9406.416,512
6.8125,4937.58,-9387.406,512
6.814453,4935.056,-9389.899,512
6.816406,4945.774,-9384.62,512
6.818359,4951.589,-9381.797,512
6.820312,4950.803,-9370.571,512
6.822266,4929.691,-9367.358,512
6.824219,4913.82,-9377.995,512
6.826172,4923.599,-9368.896,512
6.828125,4920.45,-9362.903,512
6.830078,4894.925,-9389.207,512
6.832031,4907.812,-9367.279,512
6.833984,4911.302,-9361.97,512
6.835938,4907.661,-9362.091,512
6.837891,4917.355,-9346.446,512
6.839844,4916.152,-9353.974,512
6.841797,4914.107,-9358.919,512
6.84375,4911.917,-9349.855,512
6.845703,4909.375,-9350.997,512
6.847656,4893.287,-9366.86,512
6.849609,4906.042,-9357.182,512
6.851562,4901.376,-9352.074,512
6.853516,4907.771,-9337.025,512
6.855469,4902.021,-9352.649,512
6.857422,4880.632,-9361.384,512
6.859375,4880.577,-9354.917,512
6.861328,4869.865,-9363.824,512
6.863281,4889.516,-9344.589,512
6.865234,4894.895,-9347.012,512
6.867188,4891.807,-9352.402,512
6.869141,4891.709,-9342.1,512
6.871094,4899.199,-9332.102,512
6.873047,4883.305,-9334.225,512
6.875,4863.908,-9335.482,512
6.876953,4847.43,-9359.286,512
6.878906,4851.319,-9370.33,512
6.880859,4869.414,-9347.732,512
6.882812,4872.803,-9347.298,512
6.884766,4887.459,-9353.091,512
6.886719,4881.364,-9340.741,512
6.888672,4901.523,-9335.552,512
6.890625,4901.796,-9339.643,512
6.892578,4884.665,-9355.034,512
6.894531,4882.388,-9354.22,512
6.896484,4883.552,-9353.084,512
6.898438,4892.026,-9341.105,512
6.900391,4885.58,-9331.951,512
6.902344,4887.715,-9336.741,512
6.904297,4882.567,-9338.764,512
6.90625,4875.18,-9343.079,512
6.908203,4863.246,-9353.928,512
6.910156,4864.971,-9353.662,512
6.912109,4869.936,-9354.226,512
6.914062,4890.973,-9340.872,512
6.916016,4880.935,-9358.523,512
6.917969,4874.424,-9356.71,512
6.919922,4875.226,-9349.958,512
6.921875,4866.676,-9345.028,512
6.923828,4871.872,-9335.792,512
6.925781,4864.125,-9339.569,512
6.927734,4862.824,-9346.375,512
6.929688,4855.577,-9361.106,512
6.931641,4855.695,-9363.062,512
6.933594,4874.902,-9360.385,512
6.935547,4888.037,-9351.602,512
6.9375,4888.143,-9354.947,512
6.939453,4889.294,-9354.45,512
6.941406,4879.207,-9359.123,512
6.943359,4885.946,-9354.082,512
6.945312,4882.637,-9352.605,512
6.947266,4867.599,-9363.273,512
6.949219,4888.069,-9356.188,512
6.951172,4878.696,-9359.134,512
6.953125,4874.83,-9363.025,512
6.955078,4878.329,-9349.088,512
6.957031,4866.995,-9357.955,512
6.958984,4875.425,-9366.639,512
6.960938,4857.605,-9381.61,512
6.962891,4859.542,-9372.176,512
6.964844,4866.283,-9364.737,512
6.966797,4875.218,-9361.057,512
6.96875,4879.874,-9354.148,512
6.970703,4882.117,-9345.385,512
6.972656,4881.056,-9345.641,512
6.974609,4876.512,-9341.721,512
6.976562,4870.729,-9354.828,512
6.978516,4866.935,-9368.907,512
6.980469,4871.772,-9356.992,512
6.982422,4879.606,-9340.012,512
6.984375,4875.598,-9344.231,512
6.986328,4846.242,-9359.031,512
6.988281,4854.294,-9345.842,512
6.990234,4856.952,-9347.462,512
6.992188,4863.817,-9343.343,512
6.994141,4869.128,-9352.763,512
6.996094,4875.441,-9354.929,512
6.998047,4876.868,-9362.068,512
7,4865.746,-9357.138,512
7.001953,4871.215,-9356.606,512
7.003906,4882.643,-9365.658,512
7.005859,4884.372,-9348.659,512
7.007812,4891.036,-9343.457,512
7.009766,4891.136,-9348.486,512
7.011719,4901.226,-9346.286,512
7.013672,4891.044,-9351.464,512
7.015625,4869.17,-9370.18,512
7.017578,4854.16,-9370.183,512
7.019531,4865.746,-9353.6,512
7.021484,4863.253,-9346.227,512
7.023438,4853.707,-9340.543,512
7.025391,4845.671,-9358.482,512
7.027344,4873.242,-9357.359,512
7.029297,4881.995,-9357.254,512
7.03125,4890.58,-9355.971,512
7.033203,4906.514,-9341.708,512
7.035156,4893.013,-9344.79,512
7.037109,4903.366,-9340.612,512
7.039062,4881.593,-9345.901,512
7.041016,4863.562,-9357.853,512
7.042969,4861.529,-9361.803,512
7.044922,4866.497,-9345.768,512
7.046875,4862.165,-9344.838,512
7.048828,4860.731,-9353.417,512
7.050781,4871.541,-9350.098,512
7.052734,4877.637,-9353.26,512
7.054688,4872.333,-9362.082,512
7.056641,4879.667,-9361.76,512
7.058594,4877.354,-9350.713,512
7.060547,4866.998,-9366.639,512
7.0625,4882.13,-9358.067,512
7.064453,4880.588,-9347.872,512
7.066406,4870.229,-9350.149,512
7.068359,4883.101,-9334.639,512
7.070312,4874.207,-9338.106,512
7.072266,4862.178,-9349.525,512
7.074219,4856.232,-9354.367,512
7.076172,4865.653,-9345.477,512
7.078125,4871.089,-9358.146,512
7.080078,4894.438,-9353.792,512
7.082031,4892.276,-9342.688,512
7.083984,4883.676,-9351.114,512
7.085938,4863.039,-9349.183,512
7.087891,4850.18,-9359.38,512
7.089844,4865.85,-9344.782,512
7.091797,4872.483,-9351.22,512
7.09375,4880.669,-9346.738,512
7.095703,4872.572,-9352.747,512
7.097656,4866.113,-9355.484,512
7.099609,4872.975,-9347.854,512
7.101562,4869.273,-9355.531,512
7.103516,4871.419,-9353.445,512
7.105469,4874.038,-9357.484,512
7.107422,4862.532,-9368.708,512
7.109375,4873.351,-9350.702,512
7.111328,4870.449,-9359.556,512
7.113281,4863.851,-9350.46,512
7.115234,4860.629,-9343.2,512
7.117188,4848.352,-9361.993,512
7.119141,4855.513,-9358.015,512
7.121094,4838.684,-9361.578,512
7.123047,4848.946,-9358.407,512
7.125,4856.156,-9361.293,512
7.126953,4858.237,-9362.462,512
7.128906,4870.953,-9359.358,512
7.130859,4879.368,-9350.235,512
7.132812,4869.096,-9368.876,512
7.134766,4878.853,-9363.875,512
7.136719,4891.028,-9337.733,512
7.138672,4869.265,-9365.814,512
7.140625,4869.303,-9356.081,512
7.142578,4842.213,-9374.552,512
7.144531,4867.546,-9354.487,512
7.146484,4855.529,-9363.429,512
7.148438,4855.915,-9379.312,512
7.150391,4861.212,-9367.021,512
7.152344,4856.641,-9356.551,512
7.154297,4860.899,-9346.083,512
7.15625,4861.035,-9347.071,512
7.158203,4868.283,-9351.714,512
7.160156,4866.217,-9356.235,512
7.162109,4861.326,-9357.949,512
7.164062,4876.294,-9345.483,512
7.166016,4862.36,-9358.01,512
7.167969,4860.567,-9359.166,512
7.169922,4873.427,-9336.523,512
7.171875,4861.606,-9347.663,512
7.173828,4872.231,-9349.11,512
7.175781,4880.991,-9346.379,512
7.177734,4873.54,-9352.869,512
7.179688,4861.895,-9354.518,512
7.181641,4862.099,-9354.645,512
7.183594,4878.098,-9351.201,512
7.185547,4883.976,-9341.327,512
7.1875,4872.244,-9349.606,512
7.189453,4860.011,-9348.156,512
7.191406,4851.762,-9360.044,512
7.193359,4868.831,-9348.246,512
7.195312,4864.503,-9361.506,512
7.197266,4879.612,-9359.078,512
7.199219,4881.367,-9357.6,512
7.201172,4872.586,-9351.361,512
7.203125,4860.997,-9343.621,512
7.205078,4850.377,-9350.669,512
7.207031,4837.67,-9347.773,512
7.208984,4860.309,-9347.532,512
7.210938,4864.971,-9355.249,512
7.212891,4859.662,-9366.001,512
7.214844,4874.38,-9354.694,512
7.216797,4881.708,-9348.249,512
7.21875,4876.691,-9362.275,512
7.220703,4893.274,-9342.798,512
7.222656,4875.663,-9353.684,512
7.224609,4871.215,-9360.793,512
7.226562,4876.829,-9351.422,512
7.228516,4854.984,-9381.386,512
7.230469,4854.9,-9384.699,512
7.232422,4855.969,-9374.146,512
7.234375,4880.352,-9368.329,512
7.236328,4889.654,-9366.277,512
7.238281,4890.385,-9354.523,512
7.240234,4884.287,-9358.1,512
7.242188,4887.14,-9345.358,512
7.244141,4882.404,-9365.534,512
7.246094,4871.097,-9375.897,512
7.248047,4861.741,-9387.328,512
7.25,4886.601,-9372.249,512
7.251953,4889.78,-9367.085,512
7.253906,4893.262,-9373.266,512
7.255859,4903.554,-9381.409,512
7.257812,4922.594,-9376.928,512
7.259766,4908.146,-9378.854,512
7.261719,4900.365,-9403.17,512
7.263672,4907.218,-9386.658,512
7.265625,4919.887,-9377.726,512
7.267578,4908.675,-9392.195,512
7.269531,4929.33,-9371.958,512
7.271484,4920.337,-9366.667,512
7.273438,4910.46,-9361.701,512
7.275391,4903.553,-9368.062,512
7.277344,4898.457,-9352.406,512
7.279297,4896.498,-9361.32,512
7.28125,4880.951,-9380.067,512
7.283203,4875.81,-9376.89,512
7.285156,4885.059,-9361.3,512
7.287109,4870.696,-9356.468,512
7.289062,4873.528,-9363.377,512
7.291016,4884.893,-9365.788,512
7.292969,4884.001,-9365.531,512
7.294922,4896.374,-9368.478,512
7.296875,4884.573,-9364.587,512
7.298828,4872.382,-9360.568,512
7.300781,4852.219,-9362.006,512
7.302734,4843.719,-9367.457,512
7.304688,4851.777,-9358.152,512
7.306641,4855.807,-9361.368,512
7.308594,4858.476,-9359.889,512
7.310547,4859.328,-9371.605,512
7.3125,4868.428,-9363.27,512
7.314453,4862.271,-9355.571,512
7.316406,4845.649,-9357.521,512
7.318359,4846.83,-9365.536,512
7.320312,4852.998,-9357.763,512
7.322266,4857.487,-9358.787,512
7.324219,4875.02,-9349.232,512
7.326172,4864.003,-9360.796,512
7.328125,4861.811,-9361.277,512
7.330078,4865.261,-9353.266,512
7.332031,4847.899,-9362.952,512
7.333984,4834.28,-9369.345,512
7.335938,4839.373,-9366.511,512
7.337891,4840.227,-9364.16,512
7.339844,4841.304,-9355.603,512
7.341797,4836.622,-9360.951,512
7.34375,4833.84,-9365.19,512
7.345703,4847.972,-9358.468,512
7.347656,4850.72,-9356.425,512
7.349609,4840.486,-9364.988,512
7.351562,4850.292,-9353.442,512
7.353516,4858.638,-9362.648,512
7.355469,4872.493,-9353.333,512
7.357422,4875.379,-9342.786,512
7.359375,4864.312,-9361.121,512
7.361328,4859.896,-9371.955,512
7.363281,4869.847,-9352.823,512
7.365234,4854.356,-9360.704,512
7.367188,4836.103,-9385.656,512
7.369141,4849.251,-9371.717,512
7.371094,4831.16,-9380.438,512
7.373047,4830.74,-9375.07,512
