timestamp,exg1,exg2,srate
0,-6476.286,-12159.24,512
0.001953125,-6467.767,-12151.26,512
0.00390625,-6474.493,-12150.03,512
0.005859375,-6473.404,-12153.49,512
0.0078125,-6461.806,-12151.97,512
0.009765625,-6462.639,-12145.15,512
0.01171875,-6457.858,-12159.32,512
0.01367188,-6440.337,-12163.29,512
0.015625,-6446.109,-12189.62,512
0.01757812,-6448.918,-12190.47,512
0.01953125,-6467.026,-12199.42,512
0.02148438,-6473.602,-12156.66,512
0.0234375,-6461.995,-12126.27,512
0.02539062,-6463.841,-12151.26,512
0.02734375,-6444.143,-12143.66,512
0.02929688,-6454.06,-12175.65,512
0.03125,-6450.161,-12165.63,512
0.03320312,-6428.996,-12145.22,512
0.03515625,-6430.439,-12151.79,512
0.03710938,-6440.341,-12165.9,512
0.0390625,-6432.037,-12166.95,512
0.04101562,-6435.556,-12175.15,512
0.04296875,-6427.435,-12175.74,512
0.04492188,-6419.249,-12168.2,512
0.046875,-6418.36,-12165.69,512
0.04882812,-6412.377,-12159.05,512
0.05078125,-6400.267,-12159.76,512
0.05273438,-6407.196,-12175.61,512
0.0546875,-6398.205,-12177.39,512
0.05664062,-6409.344,-12191.86,512
0.05859375,-6390.082,-12183.83,512
0.06054688,-6398.124,-12183.22,512
0.0625,-6394.352,-12168.79,512
0.06445312,-6377.378,-12158.24,512
0.06640625,-6381.285,-12166.73,512
0.06835938,-6378.147,-12172.11,512
0.0703125,-6370.917,-12178.29,512
0.07226562,-6361.962,-12179.06,512
0.07421875,-6365.335,-12193.37,512
0.07617188,-6361.881,-12187.9,512
0.078125,-6364.894,-12177.07,512
0.08007812,-6361.209,-12159.09,512
0.08203125,-6370.262,-12161.96,512
0.08398438,-6365.383,-12157.41,512
0.0859375,-6373.149,-12165.69,512
0.08789062,-6364.697,-12176.99,512
0.08984375,-6375.436,-12181.8,512
0.09179688,-6373.357,-12178.02,512
0.09375,-6363.291,-12157.03,512
0.09570312,-6371.002,-12165.48,512
0.09765625,-6375.57,-12174.92,512
0.09960938,-6362.362,-12166.91,512
0.1015625,-6376.711,-12202.75,512
0.1035156,-6372.693,-12187.5,512
0.1054688,-6376.375,-12188.85,512
0.1074219,-6397.627,-12180.1,512
0.109375,-6404.738,-12147.15,512
0.1113281,-6409.338,-12159.98,512
0.1132812,-6416.679,-12149.05,512
0.1152344,-6413.345,-12136.88,512
0.1171875,-6426.516,-12141.5,512
0.1191406,-6435.632,-12146.68,512
0.1210938,-6436.806,-12155.94,512
0.1230469,-6443.843,-12163.15,512
0.125,-6456.346,-12164.8,512
0.1269531,-6463.861,-12167.11,512
0.1289062,-6469.956,-12163.6,512
0.1308594,-6458.723,-12148.47,512
0.1328125,-6456.941,-12151.77,512
0.1347656,-6471.995,-12158.99,512
0.1367188,-6485.246,-12169.07,512
0.1386719,-6491.241,-12159.52,512
0.140625,-6492.337,-12149.49,512
0.1425781,-6487.784,-12162.69,512
0.1445312,-6484.881,-12160.32,512
0.1464844,-6492.168,-12164.89,512
0.1484375,-6499.367,-12151.78,512
0.1503906,-6507.761,-12147.76,512
0.1523438,-6504.826,-12137.74,512
0.1542969,-6505.591,-12146.84,512
0.15625,-6507.898,-12154.41,512
0.1582031,-6516.959,-12159.67,512
0.1601562,-6509.292,-12160.85,512
0.1621094,-6495.27,-12162.38,512
0.1640625,-6501.954,-12204.04,512
0.1660156,-6498.01,-12203.6,512
0.1679688,-6489.709,-12185.61,512
0.1699219,-6499.155,-12157.8,512
0.171875,-6519.584,-12120.47,512
0.1738281,-6527.068,-12135.71,512
0.1757812,-6514.851,-12152.68,512
0.1777344,-6514.621,-12165.92,512
0.1796875,-6512.409,-12170.21,512
0.1816406,-6502.634,-12142.91,512
0.1835938,-6508.056,-12120.57,512
0.1855469,-6524.46,-12153.88,512
0.1875,-6511.987,-12162.25,512
0.1894531,-6518.09,-12148.07,512
0.1914062,-6519.154,-12147.09,512
0.1933594,-6507.288,-12131.66,512
0.1953125,-6517.392,-12136.2,512
0.1972656,-6524.932,-12140.28,512
0.1992188,-6518.753,-12133.28,512
0.2011719,-6516.775,-12145.55,512
0.203125,-6515.203,-12146.57,512
0.2050781,-6519.291,-12159.37,512
0.2070312,-6507.83,-12153.58,512
0.2089844,-6502.911,-12150.67,512
0.2109375,-6508.584,-12157.46,512
0.2128906,-6501.126,-12153.06,512
0.2148438,-6502.306,-12154.83,512
0.2167969,-6504.334,-12152.59,512
0.21875,-6506.245,-12151.96,512
0.2207031,-6508.407,-12150.4,512
0.2226562,-6514.485,-12164.53,512
0.2246094,-6506.673,-12169.31,512
0.2265625,-6496.356,-12149.25,512
0.2285156,-6503.914,-12163.94,512
0.2304688,-6504.397,-12155.87,512
0.2324219,-6515.295,-12137.07,512
0.234375,-6523.862,-12147.33,512
0.2363281,-6511.71,-12155.66,512
0.2382812,-6503.741,-12176.69,512
0.2402344,-6502.324,-12198.46,512
0.2421875,-6509.876,-12204.54,512
0.2441406,-6504.535,-12190.85,512
0.2460938,-6504.687,-12138.14,512
0.2480469,-6522.724,-12133.99,512
0.25,-6526.446,-12153.39,512
0.2519531,-6506.252,-12166.41,512
0.2539062,-6514.792,-12183.8,512
0.2558594,-6532.403,-12205.33,512
0.2578125,-6518.27,-12194.03,512
0.2597656,-6516.302,-12163.34,512
0.2617188,-6523.325,-12167.41,512
0.2636719,-6530.07,-12158.36,512
0.265625,-6514.567,-12156.14,512
0.2675781,-6518.914,-12162.3,512
0.2695312,-6524.628,-12181.32,512
0.2714844,-6522.651,-12186.61,512
0.2734375,-6538.622,-12186.03,512
0.2753906,-6526.171,-12194.51,512
0.2773438,-6517.688,-12188.58,512
0.2792969,-6525.708,-12194.26,512
0.28125,-6537.388,-12205.39,512
0.2832031,-6529.114,-12175.73,512
0.2851562,-6527.685,-12171.18,512
0.2871094,-6532.413,-12161.72,512
0.2890625,-6538.583,-12168.3,512
0.2910156,-6532.823,-12172.64,512
0.2929688,-6526.815,-12168.9,512
0.2949219,-6539.705,-12191.88,512
0.296875,-6546.64,-12216.57,512
0.2988281,-6542.859,-12192.8,512
0.3007812,-6541.063,-12160.88,512
0.3027344,-6533.638,-12156.13,512
0.3046875,-6533.481,-12187.37,512
0.3066406,-6537.913,-12197.53,512
0.3085938,-6545.995,-12189.99,512
0.3105469,-6554.338,-12191.93,512
0.3125,-6544.273,-12194.88,512
0.3144531,-6538.305,-12169.43,512
0.3164062,-6540.335,-12167.67,512
0.3183594,-6549.489,-12164.91,512
0.3203125,-6550.55,-12177.45,512
0.3222656,-6551.891,-12187.41,512
0.3242188,-6545.304,-12184.15,512
0.3261719,-6532.069,-12172.78,512
0.328125,-6532.11,-12170.74,512
0.3300781,-6531.824,-12176.62,512
0.3320312,-6549.483,-12190.55,512
0.3339844,-6538.389,-12188.53,512
0.3359375,-6527.88,-12187.27,512
0.3378906,-6537.134,-12195.96,512
0.3398438,-6538.209,-12193.85,512
0.3417969,-6549.806,-12194.19,512
0.34375,-6552.771,-12185.7,512
0.3457031,-6541.489,-12178.89,512
0.3476562,-6542.739,-12193.53,512
0.3496094,-6524.789,-12217.17,512
0.3515625,-6521.085,-12246.17,512
0.3535156,-6537.422,-12234.91,512
0.3554688,-6541.409,-12224.4,512
0.3574219,-6565.347,-12185.91,512
0.359375,-6576.226,-12169.15,512
0.3613281,-6565.515,-12183.43,512
0.3632812,-6570.644,-12186.26,512
0.3652344,-6565.554,-12191.37,512
0.3671875,-6573.359,-12208.69,512
0.3691406,-6566.559,-12201.63,512
0.3710938,-6557.898,-12194.69,512
0.3730469,-6561.658,-12220.49,512
0.375,-6567.085,-12218.69,512
0.3769531,-6560.902,-12207.2,512
0.3789062,-6569.893,-12202.4,512
0.3808594,-6564.924,-12196.65,512
0.3828125,-6557.717,-12194.54,512
0.3847656,-6556,-12188.44,512
0.3867188,-6556.22,-12195.01,512
0.3886719,-6550.935,-12202.45,512
0.390625,-6564.146,-12208.5,512
0.3925781,-6563.509,-12222.9,512
0.3945312,-6562.812,-12212.86,512
0.3964844,-6547.505,-12193.33,512
0.3984375,-6543.296,-12184.96,512
0.4003906,-6546.063,-12187.75,512
0.4023438,-6551.074,-12202.34,512
0.4042969,-6554.915,-12201.28,512
0.40625,-6556.368,-12213.06,512
0.4082031,-6557.454,-12197.69,512
0.4101562,-6561.22,-12199.88,512
0.4121094,-6558.735,-12203.24,512
0.4140625,-6551.425,-12195.34,512
0.4160156,-6552.123,-12194.15,512
0.4179688,-6563.28,-12203.75,512
0.4199219,-6576.94,-12232.7,512
0.421875,-6556.225,-12215.3,512
0.4238281,-6567.902,-12236.81,512
0.4257812,-6555.708,-12230.21,512
0.4277344,-6558.626,-12223.16,512
0.4296875,-6574.709,-12220.35,512
0.4316406,-6559.734,-12200.23,512
0.4335938,-6551.417,-12208.12,512
0.4355469,-6552.833,-12217.19,512
0.4375,-6559.532,-12203.38,512
0.4394531,-6558.482,-12200.59,512
0.4414062,-6561.619,-12199.07,512
0.4433594,-6572.685,-12226.53,512
0.4453125,-6553.163,-12223.45,512
0.4472656,-6542.254,-12210.37,512
0.4492188,-6559.727,-12238.16,512
0.4511719,-6544.829,-12239.27,512
0.453125,-6547.367,-12250.55,512
0.4550781,-6546.775,-12243.04,512
0.4570312,-6550.43,-12234.53,512
0.4589844,-6549.206,-12214.43,512
0.4609375,-6555.613,-12194.98,512
0.4628906,-6559.419,-12183.87,512
0.4648438,-6556.396,-12189.81,512
0.4667969,-6550.394,-12157.21,512
0.46875,-6546.808,-12165.09,512
0.4707031,-6550.904,-12186.49,512
0.4726562,-6549.521,-12200.98,512
0.4746094,-6547.44,-12212.01,512
0.4765625,-6549.27,-12216.48,512
0.4785156,-6533.323,-12211.22,512
0.4804688,-6535.949,-12184.09,512
0.4824219,-6558.441,-12199.52,512
0.484375,-6551.859,-12202.54,512
0.4863281,-6541.247,-12185.43,512
0.4882812,-6547.747,-12193.59,512
0.4902344,-6551.68,-12212.93,512
0.4921875,-6546.316,-12211,512
0.4941406,-6537.396,-12193.22,512
0.4960938,-6530.708,-12203.73,512
0.4980469,-6527.784,-12205.56,512
0.5,-6526.963,-12199.82,512
0.5019531,-6535.11,-12186.45,512
0.5039062,-6527.997,-12178.02,512
0.5058594,-6521.169,-12181.33,512
0.5078125,-6528.126,-12191.88,512
0.5097656,-6520.176,-12188.62,512
0.5117188,-6515.978,-12168.37,512
0.5136719,-6527.092,-12168.32,512
0.515625,-6522.274,-12166.13,512
0.5175781,-6524.495,-12172.89,512
0.5195312,-6519.373,-12175.41,512
0.5214844,-6524.615,-12186.11,512
0.5234375,-6532.729,-12201.29,512
0.5253906,-6509.197,-12196.95,512
0.5273438,-6499.096,-12206.52,512
0.5292969,-6504.546,-12216.07,512
0.53125,-6504.823,-12215.38,512
0.5332031,-6500.618,-12242.03,512
0.5351562,-6498.788,-12217.45,512
0.5371094,-6506.005,-12200.34,512
0.5390625,-6517.044,-12225.92,512
0.5410156,-6510.398,-12185.34,512
0.5429688,-6517.209,-12195.55,512
0.5449219,-6510.585,-12207.11,512
0.546875,-6503.166,-12185.59,512
0.5488281,-6511.37,-12181.61,512
0.5507812,-6525.485,-12166.21,512
0.5527344,-6526.434,-12178.8,512
0.5546875,-6509.602,-12169.03,512
0.5566406,-6510.337,-12184.28,512
0.5585938,-6499.609,-12179.45,512
0.5605469,-6497.421,-12160.91,512
0.5625,-6499.342,-12166.73,512
0.5644531,-6500.254,-12182.16,512
0.5664062,-6491.575,-12183.58,512
0.5683594,-6491.173,-12157.66,512
0.5703125,-6495.647,-12162.55,512
0.5722656,-6501.524,-12165.01,512
0.5742188,-6510.285,-12166.39,512
0.5761719,-6498.739,-12148.65,512
0.578125,-6506.214,-12141.93,512
0.5800781,-6513.251,-12145.33,512
0.5820312,-6522.601,-12160.48,512
0.5839844,-6513.776,-12154.46,512
0.5859375,-6517.673,-12161.49,512
0.5878906,-6523.928,-12175.34,512
0.5898438,-6517.192,-12175.69,512
0.5917969,-6510.237,-12168.41,512
0.59375,-6505.614,-12147.85,512
0.5957031,-6509.704,-12157.68,512
0.5976562,-6508.871,-12154.55,512
0.5996094,-6496.231,-12149.92,512
0.6015625,-6500.919,-12161.57,512
0.6035156,-6517.593,-12185.37,512
0.6054688,-6514.806,-12194.16,512
0.6074219,-6502.983,-12191.32,512
0.609375,-6499.417,-12172.83,512
0.6113281,-6493.818,-12162.69,512
0.6132812,-6520.076,-12163.8,512
0.6152344,-6517.904,-12155.36,512
0.6171875,-6493.077,-12141.22,512
0.6191406,-6488.648,-12170.71,512
0.6210938,-6495.034,-12178.54,512
0.6230469,-6502.137,-12176.34,512
0.625,-6500.855,-12157.36,512
0.6269531,-6508.86,-12122.98,512
0.6289062,-6510.239,-12130.15,512
0.6308594,-6507.276,-12153.28,512
0.6328125,-6507.027,-12135.45,512
0.6347656,-6509.212,-12132.77,512
0.6367188,-6507.016,-12145.78,512
0.6386719,-6509.583,-12156.73,512
0.640625,-6505.6,-12153.45,512
0.6425781,-6488.039,-12141.84,512
0.6445312,-6477.363,-12146.22,512
0.6464844,-6482.035,-12147.76,512
0.6484375,-6457.327,-12136.59,512
0.6503906,-6436.571,-12153.83,512
0.6523438,-6419.381,-12158.79,512
0.6542969,-6395.654,-12155.4,512
0.65625,-6403.267,-12175.01,512
0.6582031,-6409.53,-12205.49,512
0.6601562,-6395.641,-12220.69,512
0.6621094,-6382.37,-12222,512
0.6640625,-6389.69,-12228.32,512
0.6660156,-6405.859,-12259.13,512
0.6679688,-6390.036,-12263.78,512
0.6699219,-6419.198,-12306.77,512
0.671875,-6458.747,-12325.38,512
0.6738281,-6486.931,-12295.79,512
0.6757812,-6500.986,-12241.18,512
0.6777344,-6508.245,-12223.4,512
0.6796875,-6510.94,-12203.52,512
0.6816406,-6543.716,-12216.12,512
0.6835938,-6550.751,-12223.03,512
0.6855469,-6560.919,-12218.08,512
0.6875,-6587.479,-12211.13,512
0.6894531,-6616.088,-12202.9,512
0.6914062,-6631.466,-12164.1,512
0.6933594,-6629.784,-12137.07,512
0.6953125,-6615.245,-12147.31,512
0.6972656,-6607.414,-12141.86,512
0.6992188,-6604.731,-12148.87,512
0.7011719,-6569.847,-12157.33,512
0.703125,-6531.322,-12149.76,512
0.7050781,-6519.338,-12155.73,512
0.7070312,-6510.452,-12160.77,512
0.7089844,-6497.632,-12146.94,512
0.7109375,-6487.908,-12151.05,512
0.7128906,-6494.557,-12172.58,512
0.7148438,-6488.489,-12172.63,512
0.7167969,-6466.219,-12157.36,512
0.71875,-6483.286,-12162.6,512
0.7207031,-6496.229,-12151.49,512
0.7226562,-6495.834,-12139.96,512
0.7246094,-6499.409,-12138.61,512
0.7265625,-6492.216,-12149.86,512
0.7285156,-6492.633,-12152.71,512
0.7304688,-6487.765,-12154.38,512
0.7324219,-6492.101,-12151.97,512
0.734375,-6496.882,-12155.93,512
0.7363281,-6498.867,-12166.26,512
0.7382812,-6508.513,-12180.89,512
0.7402344,-6505.63,-12175.74,512
0.7421875,-6482.321,-12137.06,512
0.7441406,-6482.672,-12144.18,512
0.7460938,-6486.07,-12153.73,512
0.7480469,-6486.21,-12158.88,512
0.75,-6490.07,-12168.26,512
0.7519531,-6479.96,-12199.46,512
0.7539062,-6481.572,-12215.45,512
0.7558594,-6480.585,-12200.87,512
0.7578125,-6487.924,-12182.32,512
0.7597656,-6486.218,-12135.99,512
0.7617188,-6473.482,-12121.6,512
0.7636719,-6470.145,-12126.68,512
0.765625,-6498.044,-12140.04,512
0.7675781,-6489.513,-12136.95,512
0.7695312,-6488.004,-12148.67,512
0.7714844,-6495.374,-12163.29,512
0.7734375,-6492.372,-12168.3,512
0.7753906,-6483.455,-12169.88,512
0.7773438,-6490.583,-12170.29,512
0.7792969,-6481.895,-12174.74,512
0.78125,-6472.697,-12168.8,512
0.7832031,-6470.874,-12161.51,512
0.7851562,-6462.176,-12177.12,512
0.7871094,-6463.529,-12196.27,512
0.7890625,-6465.991,-12190.54,512
0.7910156,-6475.27,-12193.61,512
0.7929688,-6477.541,-12172.88,512
0.7949219,-6460.62,-12146.79,512
0.796875,-6458.766,-12152.07,512
0.7988281,-6471.579,-12156.91,512
0.8007812,-6462.726,-12150.1,512
0.8027344,-6456.904,-12137.31,512
0.8046875,-6457.279,-12143.59,512
0.8066406,-6465.011,-12165.28,512
0.8085938,-6464.039,-12166.54,512
0.8105469,-6447.841,-12156.25,512
0.8125,-6445.337,-12168.42,512
0.8144531,-6432.879,-12172.91,512
0.8164062,-6431.129,-12169.49,512
0.8183594,-6444.098,-12168.22,512
0.8203125,-6445.461,-12179.55,512
0.8222656,-6447.412,-12163.44,512
0.8242188,-6456.876,-12168.02,512
0.8261719,-6455.211,-12147.73,512
0.828125,-6449.635,-12145.59,512
0.8300781,-6439.534,-12166.06,512
0.8320312,-6440.441,-12171.18,512
0.8339844,-6449.569,-12194.88,512
0.8359375,-6433.666,-12195.49,512
0.8378906,-6417.548,-12169.99,512
0.8398438,-6438.609,-12180.19,512
0.8417969,-6434.249,-12184.76,512
0.84375,-6424.799,-12169.83,512
0.8457031,-6405.641,-12132.73,512
0.8476562,-6395.881,-12128.36,512
0.8496094,-6400.257,-12139.42,512
0.8515625,-6406.047,-12150.84,512
0.8535156,-6411.488,-12167.15,512
0.8554688,-6415.597,-12179.31,512
0.8574219,-6405.766,-12183.45,512
0.859375,-6392.597,-12199.16,512
0.8613281,-6398.176,-12220.86,512
0.8632812,-6379.542,-12214.41,512
0.8652344,-6387.455,-12194.68,512
0.8671875,-6398.739,-12170.49,512
0.8691406,-6395.04,-12167.19,512
0.8710938,-6391.149,-12184.09,512
0.8730469,-6379.743,-12152.49,512
0.875,-6371.544,-12154.7,512
0.8769531,-6369.449,-12165.44,512
0.8789062,-6365.406,-12155.09,512
0.8808594,-6362.091,-12144.52,512
0.8828125,-6351.401,-12147.56,512
0.8847656,-6344.383,-12151.88,512
0.8867188,-6355.133,-12180.98,512
0.8886719,-6352.754,-12193.6,512
0.890625,-6340.626,-12185.36,512
0.8925781,-6356.968,-12204.44,512
0.8945312,-6347.79,-12193.08,512
0.8964844,-6347.102,-12171.53,512
0.8984375,-6351.956,-12160.71,512
0.9003906,-6348.155,-12156.63,512
0.9023438,-6357.196,-12164.88,512
0.9042969,-6350.019,-12166.15,512
0.90625,-6353.836,-12177.23,512
0.9082031,-6368.294,-12191.08,512
0.9101562,-6370.612,-12188.37,512
0.9121094,-6360.232,-12187.01,512
0.9140625,-6369.704,-12180.02,512
0.9160156,-6375.014,-12178.09,512
0.9179688,-6382.162,-12175.44,512
0.9199219,-6389.991,-12170.85,512
0.921875,-6391.699,-12159.15,512
0.9238281,-6415.17,-12178.69,512
0.9257812,-6411.805,-12184.24,512
0.9277344,-6410.201,-12173.02,512
0.9296875,-6414.81,-12151.59,512
0.9316406,-6421.419,-12148.79,512
0.9335938,-6419.063,-12148.37,512
0.9355469,-6427.306,-12154.42,512
0.9375,-6431.605,-12159.21,512
0.9394531,-6459.944,-12188.21,512
0.9414062,-6467.688,-12190.08,512
0.9433594,-6460.101,-12172.8,512
0.9453125,-6464.141,-12172.91,512
0.9472656,-6464.461,-12174.42,512
0.9492188,-6472.736,-12166.65,512
0.9511719,-6464.127,-12158.37,512
0.953125,-6474.225,-12174.55,512
0.9550781,-6472.757,-12180.41,512
0.9570312,-6453.39,-12160.04,512
0.9589844,-6465.535,-12160.68,512
0.9609375,-6472.977,-12162.68,512
0.9628906,-6472.358,-12164.2,512
0.9648438,-6489.757,-12188.08,512
0.9667969,-6481.283,-12192.42,512
0.96875,-6471.899,-12197.6,512
0.9707031,-6465.03,-12186.06,512
0.9726562,-6481.299,-12167.04,512
0.9746094,-6497.209,-12157.2,512
0.9765625,-6488.969,-12157.83,512
0.9785156,-6476.693,-12153.9,512
0.9804688,-6488.125,-12167.05,512
0.9824219,-6496.046,-12148.65,512
0.984375,-6491.165,-12120.56,512
0.9863281,-6496.66,-12138.6,512
0.9882812,-6491.228,-12137.08,512
0.9902344,-6488.652,-12150.88,512
0.9921875,-6484.589,-12159.61,512
0.9941406,-6486.364,-12156.51,512
0.9960938,-6510.278,-12162.96,512
0.9980469,-6501.647,-12154.2,512
1,-6479.914,-12143.24,512
1.001953,-6490.832,-12150.25,512
1.003906,-6481.857,-12144.31,512
1.005859,-6485.525,-12148.26,512
1.007812,-6490.668,-12163.61,512
1.009766,-6495.542,-12160.01,512
1.011719,-6491.263,-12149.33,512
1.013672,-6504.286,-12152.1,512
1.015625,-6511.742,-12160.22,512
1.017578,-6509.165,-12165.47,512
1.019531,-6511.677,-12162.67,512
1.021484,-6493.927,-12156.9,512
1.023438,-6490.439,-12163.71,512
1.025391,-6488.894,-12164.46,512
1.027344,-6493.643,-12173.45,512
1.029297,-6500.727,-12161.43,512
1.03125,-6477.009,-12137.08,512
1.033203,-6482.918,-12144.34,512
1.035156,-6479.548,-12150.42,512
1.037109,-6473.59,-12147.92,512
1.039062,-6475.461,-12157.71,512
1.041016,-6474.232,-12151.19,512
1.042969,-6482.061,-12154.01,512
1.044922,-6486.25,-12155.09,512
1.046875,-6483.033,-12150.8,512
1.048828,-6484.92,-12150.43,512
1.050781,-6484.556,-12156.22,512
1.052734,-6489.887,-12165.92,512
1.054688,-6482.45,-12167.29,512
1.056641,-6479.621,-12170.55,512
1.058594,-6479.114,-12181,512
1.060547,-6480.833,-12177.21,512
1.0625,-6479.877,-12176.25,512
1.064453,-6479.988,-12166.76,512
1.066406,-6473.869,-12157.92,512
1.068359,-6486.218,-12167.05,512
1.070312,-6488.656,-12160.05,512
1.072266,-6484.971,-12162.45,512
1.074219,-6491.784,-12185.37,512
1.076172,-6479.33,-12206.38,512
1.078125,-6482.999,-12194.49,512
1.080078,-6501.636,-12177.02,512
1.082031,-6501.626,-12149.25,512
1.083984,-6486.81,-12148.8,512
1.085938,-6483.175,-12162.52,512
1.087891,-6489.23,-12160.48,512
1.089844,-6482.779,-12176.85,512
1.091797,-6486.431,-12125.19,512
1.09375,-6504.557,-12118.2,512
1.095703,-6506.616,-12154.68,512
1.097656,-6493.571,-12150.4,512
1.099609,-6485.944,-12159.96,512
1.101562,-6479.733,-12162.35,512
1.103516,-6483.167,-12168.54,512
1.105469,-6494.708,-12158.77,512
1.107422,-6497.072,-12147.87,512
1.109375,-6493.5,-12156.31,512
1.111328,-6504.287,-12146.66,512
1.113281,-6499.04,-12152.67,512
1.115234,-6498.941,-12158.66,512
1.117188,-6499.836,-12163.42,512
1.119141,-6506.642,-12169.42,512
1.121094,-6496.279,-12170.48,512
1.123047,-6492.521,-12164.71,512
1.125,-6484.458,-12154.88,512
1.126953,-6493.166,-12155.35,512
1.128906,-6491.421,-12163.96,512
1.130859,-6494.709,-12156.92,512
1.132812,-6486.604,-12139.52,512
1.134766,-6488.375,-12152.91,512
1.136719,-6490.929,-12160.45,512
1.138672,-6487.371,-12162.65,512
1.140625,-6487.417,-12163.52,512
1.142578,-6471.873,-12150.8,512
1.144531,-6475.125,-12174.74,512
1.146484,-6470.618,-12182.13,512
1.148438,-6477.943,-12193.97,512
1.150391,-6484.39,-12191.76,512
1.152344,-6490.561,-12189.93,512
1.154297,-6497.971,-12177.95,512
1.15625,-6487.956,-12143,512
1.158203,-6478.318,-12144.19,512
1.160156,-6482.981,-12157.12,512
1.162109,-6477.645,-12168.45,512
1.164062,-6479.948,-12181.25,512
1.166016,-6485.328,-12155.01,512
1.167969,-6488.546,-12147.58,512
1.169922,-6489.763,-12165.35,512
1.171875,-6496.692,-12159.38,512
1.173828,-6489.107,-12161.01,512
1.175781,-6491.563,-12150.7,512
1.177734,-6497.265,-12148.83,512
1.179688,-6500.845,-12134.55,512
1.181641,-6500.247,-12120.62,512
1.183594,-6499.373,-12136.46,512
1.185547,-6511.718,-12155.14,512
1.1875,-6499.384,-12147.9,512
1.189453,-6501.095,-12157.04,512
1.191406,-6517.31,-12167.7,512
1.193359,-6506.012,-12156.85,512
1.195312,-6502.02,-12153.4,512
1.197266,-6495.751,-12150.29,512
1.199219,-6503.007,-12158.73,512
1.201172,-6498.194,-12156.91,512
1.203125,-6500.378,-12169.04,512
1.205078,-6499.325,-12165,512
1.207031,-6506.249,-12178.54,512
1.208984,-6504.733,-12176.67,512
1.210938,-6498.02,-12163.72,512
1.212891,-6510.564,-12165.31,512
1.214844,-6510.229,-12157.36,512
1.216797,-6511.012,-12157.09,512
1.21875,-6502.991,-12144.2,512
1.220703,-6494.71,-12143.19,512
1.222656,-6495.342,-12153.41,512
1.224609,-6491.404,-12151.69,512
1.226562,-6491.351,-12162.64,512
1.228516,-6497.763,-12164.18,512
1.230469,-6490.686,-12153.32,512
1.232422,-6499.575,-12153.61,512
1.234375,-6503.323,-12162.86,512
1.236328,-6504.614,-12167.12,512
1.238281,-6503.689,-12171.65,512
1.240234,-6497.692,-12180.93,512
1.242188,-6487.018,-12174.65,512
1.244141,-6493.488,-12166.34,512
1.246094,-6493.169,-12150.17,512
1.248047,-6513.931,-12140.71,512
1.25,-6506.14,-12137.38,512
1.251953,-6496.498,-12137.44,512
1.253906,-6499.133,-12148.23,512
1.255859,-6501.281,-12153,512
1.257812,-6493.396,-12145.62,512
1.259766,-6494.733,-12161.81,512
1.261719,-6516.167,-12161.67,512
1.263672,-6513.307,-12145.65,512
1.265625,-6503.266,-12155.62,512
1.267578,-6502.298,-12160.68,512
1.269531,-6484.846,-12148.97,512
1.271484,-6491.967,-12172.68,512
1.273438,-6503.745,-12161.12,512
1.275391,-6491.055,-12144.23,512
1.277344,-6484.391,-12132.92,512
1.279297,-6494.229,-12127.24,512
1.28125,-6506.117,-12138.84,512
1.283203,-6497.498,-12134.94,512
1.285156,-6487.676,-12138.38,512
1.287109,-6485.396,-12154.25,512
1.289062,-6493.297,-12181.69,512
1.291016,-6492.176,-12179.06,512
1.292969,-6505.798,-12175.81,512
1.294922,-6504.966,-12152.08,512
1.296875,-6498.883,-12140.37,512
1.298828,-6498.132,-12154.27,512
1.300781,-6497.315,-12152.79,512
1.302734,-6492.948,-12152.99,512
1.304688,-6497.629,-12156.56,512
1.306641,-6493.308,-12157.16,512
1.308594,-6488.916,-12157.88,512
1.310547,-6497.204,-12161.76,512
1.3125,-6509.176,-12159.72,512
1.314453,-6507.962,-12149.35,512
1.316406,-6511.677,-12167.25,512
1.318359,-6494.053,-12162.13,512
1.320312,-6480.478,-12152.52,512
1.322266,-6485.98,-12162.29,512
1.324219,-6485.893,-12169.25,512
1.326172,-6497.113,-12162.26,512
1.328125,-6476.504,-12143.73,512
1.330078,-6480.149,-12142.4,512
1.332031,-6479.051,-12171.74,512
1.333984,-6469.098,-12190.06,512
1.335938,-6467.703,-12191.04,512
1.337891,-6470.449,-12191.17,512
1.339844,-6470.517,-12161.4,512
1.341797,-6481.384,-12138.33,512
1.34375,-6483.396,-12121.27,512
1.345703,-6488.908,-12124.62,512
1.347656,-6484.74,-12137.45,512
1.349609,-6479.131,-12145.78,512
1.351562,-6485.831,-12172.71,512
1.353516,-6479.709,-12189.21,512
1.355469,-6472.465,-12184.14,512
1.357422,-6472.54,-12182.54,512
1.359375,-6478.378,-12185.38,512
1.361328,-6477.952,-12158.89,512
1.363281,-6477.515,-12161.93,512
1.365234,-6477.913,-12161.31,512
1.367188,-6474.264,-12165.16,512
1.369141,-6476.272,-12183.44,512
1.371094,-6474.382,-12180.78,512
1.373047,-6458.956,-12176.66,512
1.375,-6463.986,-12187.76,512
1.376953,-6463.458,-12185.86,512
1.378906,-6469.896,-12177.89,512
1.380859,-6478.073,-12164.55,512
1.382812,-6466.245,-12152.77,512
1.384766,-6471.043,-12174.47,512
1.386719,-6465.931,-12189.69,512
1.388672,-6471.345,-12209.58,512
1.390625,-6453.919,-12169.91,512
1.392578,-6474.916,-12145.49,512
1.394531,-6474.473,-12146.87,512
1.396484,-6472.72,-12144.21,512
1.398438,-6474.186,-12148.94,512
1.400391,-6475.092,-12143.12,512
1.402344,-6478.581,-12141.38,512
1.404297,-6472.661,-12143.46,512
1.40625,-6489.79,-12149.84,512
1.408203,-6492.096,-12156.48,512
1.410156,-6486.371,-12159.3,512
1.412109,-6487.096,-12158.61,512
1.414062,-6482.398,-12164.4,512
1.416016,-6483.491,-12163.28,512
1.417969,-6483.884,-12145.88,512
1.419922,-6474.98,-12143.45,512
1.421875,-6487.713,-12155.77,512
1.423828,-6491.424,-12156.38,512
1.425781,-6475.737,-12145.95,512
1.427734,-6485.22,-12167.94,512
1.429688,-6483.277,-12158.75,512
1.431641,-6476.984,-12135.95,512
1.433594,-6485.358,-12143.53,512
1.435547,-6485.672,-12138.12,512
1.4375,-6487.797,-12140.35,512
1.439453,-6488.68,-12152.03,512
1.441406,-6494.793,-12149.36,512
1.443359,-6497.814,-12148.09,512
1.445312,-6493.495,-12146.89,512
1.447266,-6487.003,-12143.1,512
1.449219,-6491.214,-12166.66,512
1.451172,-6476.375,-12169.3,512
1.453125,-6483.267,-12157.04,512
1.455078,-6479.749,-12165.29,512
1.457031,-6481.984,-12167.21,512
1.458984,-6487.026,-12144.21,512
1.460938,-6494.494,-12141.63,512
1.462891,-6487.036,-12161.19,512
1.464844,-6489.583,-12178.9,512
1.466797,-6478.115,-12155.04,512
1.46875,-6486.617,-12166.27,512
1.470703,-6494.752,-12173.47,512
1.472656,-6485.64,-12153.88,512
1.474609,-6486.704,-12120.24,512
1.476562,-6466.208,-12109.43,512
1.478516,-6448.462,-12121.35,512
1.480469,-6456.235,-12113.78,512
1.482422,-6430.249,-12126.06,512
1.484375,-6395.531,-12127.1,512
1.486328,-6377.469,-12134.67,512
1.488281,-6367.599,-12166.98,512
1.490234,-6347.799,-12190.35,512
1.492188,-6353.972,-12211.41,512
1.494141,-6354.311,-12229.53,512
1.496094,-6342.077,-12225.65,512
1.498047,-6369.327,-12224.48,512
1.5,-6382.475,-12241.34,512
1.501953,-6387.336,-12237.1,512
1.503906,-6409.458,-12226.63,512
1.505859,-6443.985,-12221.52,512
1.507812,-6467.399,-12232.49,512
1.509766,-6477.913,-12236.53,512
1.511719,-6487.77,-12243.5,512
1.513672,-6495.329,-12239.48,512
1.515625,-6504.245,-12221.31,512
1.517578,-6511.105,-12209.27,512
1.519531,-6543.402,-12212.13,512
1.521484,-6583.791,-12204.59,512
1.523438,-6606.875,-12185.59,512
1.525391,-6613.217,-12160.49,512
1.527344,-6615.621,-12155.44,512
1.529297,-6606.752,-12151.75,512
1.53125,-6600.347,-12151.59,512
1.533203,-6579.958,-12140.86,512
1.535156,-6549.193,-12155.89,512
1.537109,-6534.32,-12193.59,512
1.539062,-6496.066,-12204.74,512
1.541016,-6488.504,-12193.65,512
1.542969,-6472.879,-12162.51,512
1.544922,-6477.181,-12138.37,512
1.546875,-6484.275,-12126.66,512
1.548828,-6475.086,-12136.74,512
1.550781,-6456.261,-12131.55,512
1.552734,-6468.829,-12151.45,512
1.554688,-6470.082,-12165.39,512
1.556641,-6468.764,-12161.61,512
1.558594,-6480.903,-12177.07,512
1.560547,-6471.996,-12173.19,512
1.5625,-6462.219,-12136.14,512
1.564453,-6468.997,-12136.78,512
1.566406,-6458.641,-12133.09,512
1.568359,-6457.97,-12147.11,512
1.570312,-6461.583,-12175.9,512
1.572266,-6456.385,-12184.14,512
1.574219,-6453.906,-12184.92,512
1.576172,-6455.833,-12182.08,512
1.578125,-6465.862,-12162.63,512
1.580078,-6467.419,-12156.1,512
1.582031,-6471.582,-12123.48,512
1.583984,-6474.995,-12116.98,512
1.585938,-6474.748,-12134.64,512
1.587891,-6482.51,-12148.87,512
1.589844,-6492.11,-12156.34,512
1.591797,-6485.232,-12156.87,512
1.59375,-6491.336,-12180.86,512
1.595703,-6481.294,-12178.26,512
1.597656,-6471.497,-12166.88,512
1.599609,-6476.195,-12169.22,512
1.601562,-6480.015,-12164.57,512
1.603516,-6483.857,-12175.72,512
1.605469,-6493.107,-12189.74,512
1.607422,-6469.817,-12190.17,512
1.609375,-6460.105,-12184.92,512
1.611328,-6457.971,-12176.07,512
1.613281,-6457.421,-12182.92,512
1.615234,-6464.243,-12168.82,512
1.617188,-6469.267,-12167.09,512
1.619141,-6467.033,-12169.81,512
1.621094,-6478.358,-12180.52,512
1.623047,-6478.316,-12177.82,512
1.625,-6450.281,-12167.44,512
1.626953,-6451.723,-12160.17,512
1.628906,-6448.566,-12157.92,512
1.630859,-6455.853,-12170.88,512
1.632812,-6444.219,-12162.22,512
1.634766,-6438.834,-12166.67,512
1.636719,-6431.723,-12167.94,512
1.638672,-6430.828,-12167.39,512
1.640625,-6447.399,-12183.92,512
1.642578,-6438.249,-12173.92,512
1.644531,-6434.173,-12167.62,512
1.646484,-6446.442,-12166.89,512
1.648438,-6440.522,-12161.55,512
1.650391,-6436.224,-12173.56,512
1.652344,-6431.924,-12176.37,512
1.654297,-6422.208,-12177.25,512
1.65625,-6435.474,-12179.84,512
1.658203,-6430.652,-12179.88,512
1.660156,-6422.197,-12170.51,512
1.662109,-6433.9,-12191.51,512
1.664062,-6427.417,-12206.01,512
1.666016,-6419.599,-12198.77,512
1.667969,-6419.052,-12178.3,512
1.669922,-6412.952,-12163.8,512
1.671875,-6411.735,-12154.28,512
1.673828,-6427.306,-12173.63,512
1.675781,-6418.74,-12166.34,512
1.677734,-6404.207,-12168.74,512
1.679688,-6412.093,-12176.62,512
1.681641,-6392.927,-12186.63,512
1.683594,-6387.839,-12164.61,512
1.685547,-6397.631,-12178.37,512
1.6875,-6396.051,-12174.02,512
1.689453,-6412.433,-12162.66,512
1.691406,-6402.755,-12178.71,512
1.693359,-6387.578,-12157.96,512
1.695312,-6379.713,-12161.55,512
1.697266,-6377.97,-12171.83,512
1.699219,-6373.776,-12169.32,512
1.701172,-6368.07,-12178.69,512
1.703125,-6367.444,-12200.38,512
1.705078,-6370.633,-12213.32,512
1.707031,-6352.627,-12207.04,512
1.708984,-6358.586,-12203,512
1.710938,-6360.044,-12192.72,512
1.712891,-6359.732,-12196.05,512
1.714844,-6368.476,-12207.6,512
1.716797,-6348.496,-12203.41,512
1.71875,-6350.461,-12189.98,512
1.720703,-6364.649,-12185.84,512
1.722656,-6359.223,-12195.2,512
1.724609,-6364.417,-12199.74,512
1.726562,-6352.856,-12177.03,512
1.728516,-6345.915,-12176.36,512
1.730469,-6332.632,-12177.43,512
1.732422,-6323.08,-12164.67,512
1.734375,-6323.375,-12159.79,512
1.736328,-6336.381,-12177.46,512
1.738281,-6326.401,-12167.38,512
1.740234,-6341.702,-12184.16,512
1.742188,-6352.752,-12189.44,512
1.744141,-6338.625,-12171.59,512
1.746094,-6339.435,-12167.49,512
1.748047,-6356.113,-12188.11,512
1.75,-6362.322,-12211.77,512
1.751953,-6349.635,-12199.59,512
1.753906,-6372.826,-12228.11,512
1.755859,-6377.487,-12180.41,512
1.757812,-6391.175,-12152.42,512
1.759766,-6402.462,-12144.62,512
1.761719,-6405.216,-12126.57,512
1.763672,-6408.639,-12144.06,512
1.765625,-6409.698,-12139.23,512
1.767578,-6418.432,-12146.5,512
1.769531,-6430.828,-12156.33,512
1.771484,-6429.77,-12174.83,512
1.773438,-6430.212,-12188.46,512
1.775391,-6413.009,-12169.3,512
1.777344,-6447.546,-12173.89,512
1.779297,-6447.782,-12141.98,512
1.78125,-6441.575,-12118.18,512
1.783203,-6447.075,-12127.13,512
1.785156,-6445.105,-12145.59,512
1.787109,-6437.996,-12135.6,512
1.789062,-6450.611,-12146.62,512
1.791016,-6458.038,-12132.66,512
1.792969,-6459.84,-12132.81,512
1.794922,-6467.705,-12142.03,512
1.796875,-6461.598,-12128.47,512
1.798828,-6458.233,-12125.66,512
1.800781,-6462.605,-12139.39,512
1.802734,-6484.54,-12152.18,512
1.804688,-6490.17,-12153.71,512
1.806641,-6477.627,-12147.59,512
1.808594,-6480.599,-12154.71,512
1.810547,-6475.995,-12165.02,512
1.8125,-6480.015,-12155.44,512
1.814453,-6476.04,-12147.57,512
1.816406,-6475.729,-12142.33,512
1.818359,-6481.022,-12139.13,512
1.820312,-6498.203,-12164.62,512
1.822266,-6488.486,-12162.64,512
1.824219,-6483.558,-12152.33,512
1.826172,-6479.301,-12145.02,512
1.828125,-6476.586,-12139.58,512
1.830078,-6483.552,-12143.13,512
1.832031,-6470.398,-12144.53,512
1.833984,-6471.047,-12161.34,512
1.835938,-6470.78,-12155.52,512
1.837891,-6469.541,-12154.16,512
1.839844,-6467.85,-12145.2,512
1.841797,-6475.204,-12142.44,512
1.84375,-6478.561,-12151.54,512
1.845703,-6470.666,-12148.98,512
1.847656,-6463.252,-12150.04,512
1.849609,-6474.053,-12147.76,512
1.851562,-6483.9,-12139.3,512
1.853516,-6473.185,-12130.16,512
1.855469,-6466.364,-12134.78,512
1.857422,-6461.042,-12157.19,512
1.859375,-6475.486,-12165.61,512
1.861328,-6469.294,-12153.99,512
1.863281,-6470.73,-12145.72,512
1.865234,-6487.689,-12131.12,512
1.867188,-6483.519,-12127.09,512
1.869141,-6485.384,-12141.61,512
1.871094,-6489.792,-12169.83,512
1.873047,-6491.495,-12191.67,512
1.875,-6469.26,-12170.98,512
1.876953,-6470.647,-12148.9,512
1.878906,-6485.88,-12125.17,512
1.880859,-6480.988,-12127.8,512
1.882812,-6488.102,-12131.89,512
1.884766,-6489.166,-12131.24,512
1.886719,-6491.794,-12149.68,512
1.888672,-6485.281,-12150.33,512
1.890625,-6476.637,-12137.18,512
1.892578,-6477.9,-12141.92,512
1.894531,-6482.896,-12148.61,512
1.896484,-6477.334,-12137.38,512
1.898438,-6481.265,-12135.51,512
1.900391,-6479.284,-12145.42,512
1.902344,-6468.555,-12132.18,512
1.904297,-6469.194,-12125.44,512
1.90625,-6480.208,-12143.13,512
1.908203,-6480.749,-12143.31,512
1.910156,-6470.629,-12141.19,512
1.912109,-6469.319,-12125.43,512
1.914062,-6469.591,-12126.12,512
1.916016,-6472.358,-12133.76,512
1.917969,-6484.821,-12146.76,512
1.919922,-6496.638,-12157.57,512
1.921875,-6493.479,-12155.28,512
1.923828,-6483.523,-12152.22,512
1.925781,-6483.42,-12153.9,512
1.927734,-6493.266,-12168.68,512
1.929688,-6477.972,-12132.8,512
1.931641,-6491.648,-12151.44,512
1.933594,-6492.899,-12166.68,512
1.935547,-6490.915,-12183.02,512
1.9375,-6477.5,-12176.38,512
1.939453,-6475.24,-12175.05,512
1.941406,-6478.444,-12174.45,512
1.943359,-6475.61,-12171.48,512
1.945312,-6491.049,-12158.06,512
1.947266,-6511.107,-12163.94,512
1.949219,-6486.636,-12162.4,512
1.951172,-6495.829,-12167.2,512
1.953125,-6500.265,-12192.32,512
1.955078,-6503.054,-12191.03,512
1.957031,-6491.793,-12172.88,512
1.958984,-6501.192,-12144.63,512
1.960938,-6504.283,-12127.69,512
1.962891,-6499.086,-12140.57,512
1.964844,-6495.773,-12149.01,512
1.966797,-6496.185,-12161.19,512
1.96875,-6497.701,-12178.9,512
1.970703,-6490.458,-12191.24,512
1.972656,-6500.049,-12202.91,512
1.974609,-6500.953,-12192.9,512
1.976562,-6492.441,-12151.38,512
1.978516,-6495.94,-12132.31,512
1.980469,-6499.771,-12133.28,512
1.982422,-6502.873,-12149.16,512
1.984375,-6490.862,-12143.58,512
1.986328,-6489.417,-12169.7,512
1.988281,-6484.802,-12181.07,512
1.990234,-6486.103,-12195.17,512
1.992188,-6491.058,-12176.92,512
1.994141,-6495.776,-12146.7,512
1.996094,-6491.217,-12135.13,512
1.998047,-6491.305,-12117.8,512
2,-6477.398,-12120.87,512
2.001953,-6458.976,-12123.96,512
2.003906,-6469.898,-12137.03,512
2.005859,-6469.722,-12147.94,512
2.007812,-6461.606,-12130.56,512
2.009766,-6474.502,-12138.81,512
2.011719,-6470.25,-12145.04,512
2.013672,-6470.505,-12131.39,512
2.015625,-6487.019,-12147.9,512
2.017578,-6477.714,-12143.73,512
2.019531,-6477.996,-12143.47,512
2.021484,-6481.375,-12165.16,512
2.023438,-6484.353,-12159.43,512
2.025391,-6483.496,-12149.34,512
2.027344,-6480.545,-12164.26,512
2.029297,-6480.625,-12145.45,512
2.03125,-6477.91,-12156.32,512
2.033203,-6466.907,-12177.71,512
2.035156,-6477.494,-12192.5,512
2.037109,-6490.894,-12196.01,512
2.039062,-6488.755,-12183.79,512
2.041016,-6489.393,-12131.76,512
2.042969,-6489.044,-12128.84,512
2.044922,-6500.663,-12156.94,512
2.046875,-6504.279,-12154.9,512
2.048828,-6508.225,-12179.19,512
2.050781,-6511.318,-12198.92,512
2.052734,-6504.665,-12200.28,512
2.054688,-6491.83,-12204.63,512
2.056641,-6486.878,-12187.78,512
2.058594,-6509.774,-12152.74,512
2.060547,-6507.513,-12130.25,512
2.0625,-6494.801,-12148.07,512
2.064453,-6513.623,-12170.27,512
2.066406,-6512.484,-12158.88,512
2.068359,-6516.903,-12192.61,512
2.070312,-6511.681,-12204.78,512
2.072266,-6503.058,-12187.99,512
2.074219,-6524.951,-12181.02,512
2.076172,-6531.821,-12188.94,512
2.078125,-6535.335,-12204.65,512
2.080078,-6514.153,-12177.78,512
2.082031,-6520.416,-12172.17,512
2.083984,-6525.297,-12161.43,512
2.085938,-6526.958,-12179.65,512
2.087891,-6508.243,-12167.29,512
2.089844,-6514.486,-12174.77,512
2.091797,-6512.314,-12185.48,512
2.09375,-6513.506,-12165.64,512
2.095703,-6503.07,-12145.28,512
2.097656,-6507.754,-12149.02,512
2.099609,-6500.708,-12154.66,512
2.101562,-6488.322,-12152.4,512
2.103516,-6489.706,-12154.94,512
2.105469,-6509.791,-12161.76,512
2.107422,-6494.396,-12159.65,512
2.109375,-6489.501,-12154.58,512
2.111328,-6503.304,-12166.84,512
2.113281,-6482.819,-12160.09,512
2.115234,-6474.206,-12141.87,512
2.117188,-6481.668,-12152.2,512
2.119141,-6485.152,-12161.28,512
2.121094,-6477.215,-12149.89,512
2.123047,-6477.737,-12145.11,512
2.125,-6483.941,-12138.91,512
2.126953,-6476.538,-12146.84,512
2.128906,-6469.305,-12143.46,512
2.130859,-6479.116,-12139.87,512
2.132812,-6485.964,-12139.43,512
2.134766,-6470.52,-12152.4,512
2.136719,-6475.345,-12156.29,512
2.138672,-6478,-12174.08,512
2.140625,-6480.591,-12193.04,512
2.142578,-6474.107,-12201.43,512
2.144531,-6477.233,-12170.48,512
2.146484,-6468.624,-12155.86,512
2.148438,-6471.209,-12175.47,512
2.150391,-6489.439,-12191.23,512
2.152344,-6475.998,-12209.19,512
2.154297,-6473.398,-12178.81,512
2.15625,-6488.932,-12149.35,512
2.158203,-6491.318,-12169.73,512
2.160156,-6487.822,-12182.97,512
2.162109,-6482.123,-12184.49,512
2.164062,-6480.466,-12187.39,512
2.166016,-6481.635,-12193.53,512
2.167969,-6477.912,-12174.26,512
2.169922,-6484.67,-12165.31,512
2.171875,-6500.535,-12204.75,512
2.173828,-6500.159,-12198.64,512
2.175781,-6497.068,-12184.63,512
2.177734,-6500.926,-12177.52,512
2.179688,-6483.56,-12153.56,512
2.181641,-6488.113,-12161.46,512
2.183594,-6487.28,-12169.17,512
2.185547,-6484.018,-12177.25,512
2.1875,-6500.537,-12181.05,512
2.189453,-6496.262,-12170.38,512
2.191406,-6494.464,-12173.56,512
2.193359,-6491.292,-12162.77,512
2.195312,-6484.717,-12155.3,512
2.197266,-6492.524,-12162.69,512
2.199219,-6499.185,-12161.28,512
2.201172,-6502.619,-12172.8,512
2.203125,-6502.212,-12190.02,512
2.205078,-6509.743,-12202.24,512
2.207031,-6506.349,-12197.17,512
2.208984,-6508.664,-12174.29,512
2.210938,-6520.978,-12150.11,512
2.212891,-6512.481,-12153.81,512
2.214844,-6502.883,-12152.77,512
2.216797,-6496.777,-12147.11,512
2.21875,-6498.215,-12160.17,512
2.220703,-6494.526,-12159.13,512
2.222656,-6494.003,-12168.12,512
2.224609,-6495.23,-12169.85,512
2.226562,-6478.661,-12182.52,512
2.228516,-6477.432,-12207.97,512
2.230469,-6477.892,-12203.79,512
2.232422,-6485.048,-12171.7,512
2.234375,-6502.198,-12136.98,512
2.236328,-6502.262,-12130.13,512
2.238281,-6494.573,-12123.45,512
2.240234,-6508.108,-12136.04,512
2.242188,-6507.011,-12148.31,512
2.244141,-6501.694,-12154.86,512
2.246094,-6500.118,-12154.94,512
2.248047,-6486.869,-12155.53,512
2.25,-6487.823,-12158.67,512
2.251953,-6501.342,-12169.21,512
2.253906,-6511.064,-12168.36,512
2.255859,-6508.046,-12166.82,512
2.257812,-6498.983,-12161.44,512
2.259766,-6492.507,-12145.66,512
2.261719,-6491.333,-12146.27,512
2.263672,-6494.818,-12165.03,512
2.265625,-6497.482,-12153.37,512
2.267578,-6493.101,-12130.86,512
2.269531,-6498.867,-12131.63,512
2.271484,-6487.043,-12142.84,512
2.273438,-6482.163,-12147.88,512
2.275391,-6470.809,-12140.34,512
2.277344,-6463.271,-12132.93,512
2.279297,-6462.735,-12127.47,512
2.28125,-6440.578,-12121.27,512
2.283203,-6413.966,-12119.81,512
2.285156,-6393.925,-12133.61,512
2.287109,-6370.408,-12152.94,512
2.289062,-6371.643,-12184.91,512
2.291016,-6364.316,-12207.67,512
2.292969,-6369.824,-12244.7,512
2.294922,-6375.359,-12245.53,512
2.296875,-6366.761,-12236.09,512
2.298828,-6388.378,-12228.73,512
2.300781,-6412.626,-12219.82,512
2.302734,-6448.394,-12222.08,512
2.304688,-6467.098,-12216.31,512
2.306641,-6476.457,-12220.09,512
2.308594,-6495.429,-12221.85,512
2.310547,-6507.006,-12218.73,512
2.3125,-6501.192,-12204.72,512
2.314453,-6512.798,-12204.83,512
2.316406,-6524.749,-12206.78,512
2.318359,-6533.02,-12206.51,512
2.320312,-6564.832,-12200.96,512
2.322266,-6607.779,-12196.59,512
2.324219,-6598.786,-12188.07,512
2.326172,-6598.429,-12154.3,512
2.328125,-6583.326,-12121.74,512
2.330078,-6562.458,-12123.98,512
2.332031,-6561.041,-12153.89,512
2.333984,-6532.188,-12158.27,512
2.335938,-6525.326,-12143.63,512
2.337891,-6514.465,-12135.96,512
2.339844,-6500.018,-12127.6,512
2.341797,-6491.243,-12122.51,512
2.34375,-6470.262,-12126.32,512
2.345703,-6468.997,-12134.13,512
2.347656,-6467.583,-12141.42,512
2.349609,-6463.187,-12144.33,512
2.351562,-6463.272,-12146.85,512
2.353516,-6458.682,-12136.56,512
2.355469,-6457.473,-12134.48,512
2.357422,-6469.636,-12135.72,512
2.359375,-6464.379,-12132.1,512
2.361328,-6464.999,-12126.03,512
2.363281,-6472.457,-12133.59,512
2.365234,-6470.694,-12143.4,512
2.367188,-6470.005,-12150.04,512
2.369141,-6463.78,-12157.15,512
2.371094,-6457.682,-12145.36,512
2.373047,-6461.775,-12145.87,512
2.375,-6456.09,-12150.79,512
2.376953,-6454.323,-12153.58,512
2.378906,-6456.16,-12154.48,512
2.380859,-6460.551,-12156.84,512
2.382812,-6456.344,-12135.75,512
2.384766,-6464.134,-12151.31,512
2.386719,-6459.369,-12151.1,512
2.388672,-6471.895,-12177.23,512
2.390625,-6476.425,-12178.03,512
2.392578,-6471.415,-12160.84,512
2.394531,-6466.228,-12161.71,512
2.396484,-6466.185,-12166.22,512
2.398438,-6457.347,-12172.44,512
2.400391,-6456.279,-12191.44,512
2.402344,-6463.881,-12204.4,512
2.404297,-6463.047,-12204.93,512
2.40625,-6452.572,-12175.96,512
2.408203,-6450.446,-12140.37,512
2.410156,-6459.653,-12137.31,512
2.412109,-6461.709,-12160.53,512
2.414062,-6463.135,-12172.89,512
2.416016,-6455.601,-12171.08,512
2.417969,-6445.405,-12168.81,512
2.419922,-6446.094,-12171.15,512
2.421875,-6441.166,-12170.08,512
2.423828,-6451.727,-12178.21,512
2.425781,-6439.828,-12176.17,512
2.427734,-6436.539,-12134.09,512
2.429688,-6449.837,-12141.18,512
2.431641,-6456.267,-12158.89,512
2.433594,-6449.339,-12163.98,512
2.435547,-6446.388,-12185.46,512
2.4375,-6437.188,-12194.08,512
2.439453,-6436.237,-12185.48,512
2.441406,-6425.219,-12171.76,512
2.443359,-6429.5,-12156.52,512
2.445312,-6431.331,-12139.77,512
2.447266,-6425.174,-12134.69,512
2.449219,-6424.12,-12126.84,512
2.451172,-6430.08,-12134.98,512
2.453125,-6425.549,-12146.13,512
2.455078,-6424.767,-12153,512
2.457031,-6429.612,-12162.97,512
2.458984,-6414.647,-12160.94,512
2.460938,-6418.35,-12164.87,512
2.462891,-6410.979,-12157.43,512
2.464844,-6411.587,-12158.87,512
2.466797,-6403.939,-12146.57,512
2.46875,-6421.404,-12168.96,512
2.470703,-6422.728,-12179.96,512
2.472656,-6416.502,-12183.29,512
2.474609,-6410.476,-12179.7,512
2.476562,-6396.497,-12168.23,512
2.478516,-6402.851,-12163.98,512
2.480469,-6430.218,-12197.64,512
2.482422,-6415.283,-12199.34,512
2.484375,-6403.766,-12188.38,512
2.486328,-6407.216,-12205.26,512
2.488281,-6393.87,-12199.26,512
2.490234,-6395.467,-12217.1,512
2.492188,-6402.891,-12237.92,512
2.494141,-6394,-12221.98,512
2.496094,-6381.984,-12195.37,512
2.498047,-6380.736,-12167.89,512
2.5,-6388.785,-12163.38,512
2.501953,-6394.573,-12176.84,512
2.503906,-6374.078,-12178.83,512
2.505859,-6372,-12194.05,512
2.507812,-6382.542,-12218.86,512
2.509766,-6356.764,-12226.92,512
2.511719,-6345.91,-12230.23,512
2.513672,-6335.2,-12222.51,512
2.515625,-6342.893,-12223.66,512
2.517578,-6354.621,-12200.01,512
2.519531,-6354.929,-12165.52,512
2.521484,-6361.708,-12175.77,512
2.523438,-6351.436,-12188.38,512
2.525391,-6340.327,-12199.05,512
2.527344,-6346.602,-12199.29,512
2.529297,-6353.546,-12200.83,512
2.53125,-6345.286,-12199.52,512
2.533203,-6342.972,-12182.94,512
2.535156,-6341.649,-12202.39,512
2.537109,-6350.314,-12217.52,512
2.539062,-6360.34,-12200.3,512
2.541016,-6356.936,-12188.69,512
2.542969,-6358.942,-12193.95,512
2.544922,-6368.1,-12203.19,512
2.546875,-6370.238,-12190.6,512
2.548828,-6377.894,-12173,512
2.550781,-6385.344,-12160.76,512
2.552734,-6387.953,-12168.15,512
2.554688,-6391.578,-12171.28,512
2.556641,-6402.724,-12163.36,512
2.558594,-6405.628,-12164.33,512
2.560547,-6413.708,-12172.03,512
2.5625,-6417.177,-12153.44,512
2.564453,-6430.723,-12166.65,512
2.566406,-6436.7,-12169.67,512
2.568359,-6431.134,-12156.67,512
2.570312,-6441.324,-12170.78,512
2.572266,-6452.479,-12189.37,512
2.574219,-6455.132,-12185.81,512
2.576172,-6448.374,-12188.15,512
2.578125,-6458.534,-12196.52,512
2.580078,-6455.182,-12180.13,512
2.582031,-6461.454,-12179.62,512
2.583984,-6480.194,-12171.82,512
2.585938,-6492.075,-12143.47,512
2.587891,-6493.493,-12144.32,512
2.589844,-6482.907,-12149.47,512
2.591797,-6486.349,-12163.86,512
2.59375,-6482.566,-12149.54,512
2.595703,-6483.035,-12150.48,512
2.597656,-6495.202,-12161.24,512
2.599609,-6477.544,-12162.71,512
2.601562,-6468.558,-12181.28,512
2.603516,-6477.066,-12199.05,512
2.605469,-6477.286,-12208.36,512
2.607422,-6463.402,-12201.47,512
2.609375,-6470.857,-12167.71,512
2.611328,-6488.046,-12151.45,512
2.613281,-6493.309,-12110.09,512
2.615234,-6498.452,-12114.28,512
2.617188,-6488.196,-12131.83,512
2.619141,-6477.775,-12126.8,512
2.621094,-6483.471,-12139.35,512
2.623047,-6478.535,-12132.55,512
2.625,-6475.03,-12124.38,512
2.626953,-6476.939,-12127.84,512
2.628906,-6481.615,-12143.05,512
2.630859,-6484.265,-12147.39,512
2.632812,-6483.974,-12150.51,512
2.634766,-6482.31,-12163.43,512
2.636719,-6475.953,-12170.06,512
2.638672,-6476.896,-12169.9,512
2.640625,-6484.46,-12127.63,512
2.642578,-6489.758,-12117.65,512
2.644531,-6488.682,-12138.87,512
2.646484,-6488.023,-12144.6,512
2.648438,-6491.174,-12158.72,512
2.650391,-6494.752,-12155.95,512
2.652344,-6492.902,-12140.75,512
2.654297,-6490.277,-12144.87,512
2.65625,-6487.179,-12149.84,512
2.658203,-6492.439,-12165.87,512
2.660156,-6504.548,-12183.89,512
2.662109,-6501.327,-12166.77,512
2.664062,-6502.719,-12173.73,512
2.666016,-6488.922,-12146.65,512
2.667969,-6490.094,-12147.03,512
2.669922,-6497.155,-12163.01,512
2.671875,-6491.722,-12151.73,512
2.673828,-6481.071,-12163.55,512
2.675781,-6487.244,-12165.56,512
2.677734,-6498.92,-12174.84,512
2.679688,-6495.246,-12175.47,512
2.681641,-6493.675,-12166.34,512
2.683594,-6494.43,-12167.56,512
2.685547,-6487.729,-12182.06,512
2.6875,-6489.196,-12186.48,512
2.689453,-6480.327,-12181.12,512
2.691406,-6490.134,-12199.16,512
2.693359,-6492.934,-12201.08,512
2.695312,-6498.393,-12192.11,512
2.697266,-6494.295,-12192.21,512
2.699219,-6488.343,-12165.58,512
2.701172,-6502.512,-12138.28,512
2.703125,-6486.481,-12157.07,512
2.705078,-6492.039,-12160.85,512
2.707031,-6485.553,-12157.2,512
2.708984,-6484.005,-12176.97,512
2.710938,-6495.157,-12193.96,512
2.712891,-6497.056,-12201.44,512
2.714844,-6488.835,-12182.31,512
2.716797,-6487.802,-12161.67,512
2.71875,-6498.764,-12150.61,512
2.720703,-6502.796,-12160.39,512
2.722656,-6504.946,-12174.35,512
2.724609,-6483.687,-12152.76,512
2.726562,-6487.824,-12154.37,512
2.728516,-6488.61,-12156.81,512
2.730469,-6492.661,-12167.93,512
2.732422,-6478.292,-12169.84,512
2.734375,-6470.954,-12188.32,512
2.736328,-6481.203,-12197.71,512
2.738281,-6476.635,-12189.39,512
2.740234,-6486.64,-12167.06,512
2.742188,-6491.78,-12144.89,512
2.744141,-6487.789,-12157.36,512
2.746094,-6487.358,-12161.53,512
2.748047,-6491.038,-12159.45,512
2.75,-6484.22,-12140.34,512
2.751953,-6483.336,-12155.22,512
2.753906,-6487.901,-12167.13,512
2.755859,-6498.767,-12173.23,512
2.757812,-6491.427,-12164.86,512
2.759766,-6487.156,-12158.89,512
2.761719,-6489.342,-12168.68,512
2.763672,-6483.417,-12164.12,512
2.765625,-6489.763,-12166.3,512
2.767578,-6477.44,-12172.46,512
2.769531,-6488.474,-12182.4,512
2.771484,-6497.745,-12197.45,512
2.773438,-6477.967,-12177.33,512
2.775391,-6487.584,-12159.88,512
2.777344,-6502.331,-12173.09,512
2.779297,-6502.714,-12162.92,512
2.78125,-6490.833,-12149.12,512
2.783203,-6488.145,-12149.35,512
2.785156,-6487.339,-12159.85,512
2.787109,-6482.556,-12168.53,512
2.789062,-6474.933,-12163.67,512
2.791016,-6478.898,-12167.56,512
2.792969,-6493.327,-12172.07,512
2.794922,-6482.888,-12180.1,512
2.796875,-6480.489,-12178.52,512
2.798828,-6494.231,-12181.74,512
2.800781,-6484.835,-12180.21,512
2.802734,-6481.778,-12197.58,512
2.804688,-6475.738,-12197.11,512
2.806641,-6480.557,-12167.21,512
2.808594,-6490.221,-12160.76,512
2.810547,-6492.148,-12146.51,512
2.8125,-6483.643,-12136.56,512
2.814453,-6488.419,-12141.68,512
2.816406,-6486.848,-12151.45,512
2.818359,-6492.282,-12153.79,512
2.820312,-6493.124,-12163,512
2.822266,-6483.925,-12159.65,512
2.824219,-6480.187,-12153.73,512
2.826172,-6485.687,-12151.45,512
2.828125,-6492.126,-12156.9,512
2.830078,-6498.469,-12175.65,512
2.832031,-6506.869,-12187.72,512
2.833984,-6488.266,-12168.02,512
2.835938,-6478.396,-12167.16,512
2.837891,-6480.905,-12169.47,512
2.839844,-6489.326,-12184.46,512
2.841797,-6493.693,-12186.61,512
2.84375,-6490.778,-12177.52,512
2.845703,-6482.633,-12151.86,512
2.847656,-6506.211,-12139.46,512
2.849609,-6497.25,-12153.85,512
2.851562,-6488.648,-12158.45,512
2.853516,-6488.256,-12161.25,512
2.855469,-6487.49,-12159.14,512
2.857422,-6491.964,-12160.53,512
2.859375,-6480.082,-12146.5,512
2.861328,-6491.814,-12147.84,512
2.863281,-6478.451,-12143.22,512
2.865234,-6473.328,-12152.25,512
2.867188,-6481.081,-12163.07,512
2.869141,-6478.52,-12176.63,512
2.871094,-6466.911,-12172.58,512
2.873047,-6471.069,-12196.9,512
2.875,-6483.65,-12182.07,512
2.876953,-6493.888,-12178.94,512
2.878906,-6480.757,-12189.05,512
2.880859,-6481.073,-12156.83,512
2.882812,-6493.583,-12125.1,512
2.884766,-6493.717,-12133.83,512
2.886719,-6494.646,-12152.91,512
2.888672,-6483.162,-12139.22,512
2.890625,-6485.654,-12149.11,512
2.892578,-6484.514,-12149.13,512
2.894531,-6488.409,-12142.63,512
2.896484,-6486.967,-12158.93,512
2.898438,-6482.188,-12160.39,512
2.900391,-6481.264,-12180,512
2.902344,-6489.429,-12180.5,512
2.904297,-6481.432,-12167.56,512
2.90625,-6479.632,-12164.85,512
2.908203,-6476.492,-12158.8,512
2.910156,-6482.391,-12149.47,512
2.912109,-6479.99,-12128.02,512
2.914062,-6482.728,-12135.58,512
2.916016,-6480.092,-12144.38,512
2.917969,-6474.354,-12145.08,512
2.919922,-6466.666,-12149.51,512
2.921875,-6488.019,-12174.5,512
2.923828,-6480.106,-12182.12,512
2.925781,-6476.729,-12168.98,512
2.927734,-6473.571,-12159.89,512
2.929688,-6459.267,-12156.37,512
2.931641,-6458.683,-12154.85,512
2.933594,-6466.971,-12154.38,512
2.935547,-6484.655,-12154.84,512
2.9375,-6481.997,-12144.38,512
2.939453,-6484.634,-12163.25,512
2.941406,-6478.413,-12155.3,512
2.943359,-6481.218,-12148.56,512
2.945312,-6498.362,-12174.1,512
2.947266,-6497.194,-12185.34,512
2.949219,-6484.557,-12185,512
2.951172,-6487.883,-12199.04,512
2.953125,-6490.421,-12212.22,512
2.955078,-6494.678,-12212.77,512
2.957031,-6494.824,-12192.35,512
2.958984,-6492.122,-12197.07,512
2.960938,-6485.44,-12176.15,512
2.962891,-6499.797,-12198.72,512
2.964844,-6500.99,-12210.67,512
2.966797,-6506.374,-12204.48,512
2.96875,-6509.076,-12225.64,512
2.970703,-6500.736,-12242.1,512
2.972656,-6488.974,-12233.65,512
2.974609,-6499.192,-12221.69,512
2.976562,-6495.947,-12178.92,512
2.978516,-6490.255,-12164.62,512
2.980469,-6497.712,-12172.79,512
2.982422,-6502.22,-12178.72,512
2.984375,-6494.266,-12186.61,512
2.986328,-6489.648,-12186.4,512
2.988281,-6498.531,-12195.04,512
2.990234,-6501.299,-12178.29,512
2.992188,-6494.633,-12168.86,512
2.994141,-6494.058,-12159.95,512
2.996094,-6482.654,-12136.91,512
2.998047,-6487.724,-12154.02,512
3,-6486.174,-12162.78,512
3.001953,-6490.869,-12179.79,512
3.003906,-6491.948,-12174.11,512
3.005859,-6506.742,-12177.1,512
3.007812,-6494.422,-12158.48,512
3.009766,-6498.974,-12158.2,512
3.011719,-6496.648,-12161.59,512
3.013672,-6488.284,-12159.91,512
3.015625,-6485.261,-12157.27,512
3.017578,-6492.693,-12138.4,512
3.019531,-6499.771,-12147.25,512
3.021484,-6491.846,-12157.77,512
3.023438,-6508.803,-12178.93,512
3.025391,-6495.752,-12160.7,512
3.027344,-6500.414,-12150.43,512
3.029297,-6502.906,-12154.01,512
3.03125,-6503.181,-12149.18,512
3.033203,-6492.806,-12146.66,512
3.035156,-6504.02,-12166.53,512
3.037109,-6507.35,-12178.32,512
3.039062,-6508.771,-12186.94,512
3.041016,-6505.168,-12170.19,512
3.042969,-6499.322,-12165.22,512
3.044922,-6512.905,-12187.67,512
3.046875,-6500.227,-12181.96,512
3.048828,-6498.309,-12202.45,512
3.050781,-6493.905,-12215.24,512
3.052734,-6483.644,-12183.61,512
3.054688,-6493.028,-12164.19,512
3.056641,-6506.618,-12163.1,512
3.058594,-6508.141,-12164.62,512
3.060547,-6511.945,-12151.99,512
3.0625,-6505.884,-12162.44,512
3.064453,-6495.332,-12171.61,512
3.066406,-6476.025,-12166.33,512
3.068359,-6474.322,-12166.33,512
3.070312,-6488.735,-12151.71,512
3.072266,-6494.183,-12142.5,512
3.074219,-6474.21,-12155.05,512
3.076172,-6443.604,-12155.43,512
3.078125,-6427.38,-12157.06,512
3.080078,-6401.682,-12171.08,512
3.082031,-6386.151,-12185.92,512
3.083984,-6399.178,-12218.13,512
3.085938,-6400.161,-12247.05,512
3.087891,-6395.604,-12269.47,512
3.089844,-6425.204,-12268.86,512
3.091797,-6428.721,-12256.74,512
3.09375,-6419.921,-12237.15,512
3.095703,-6453.608,-12248.45,512
3.097656,-6496.891,-12242.26,512
3.099609,-6513.257,-12233.54,512
3.101562,-6521.417,-12239.65,512
3.103516,-6528.888,-12244.03,512
3.105469,-6530.568,-12252.36,512
3.107422,-6544.689,-12246.04,512
3.109375,-6555.202,-12242.44,512
3.111328,-6574.594,-12231.47,512
3.113281,-6601.669,-12226.2,512
3.115234,-6608.911,-12201.39,512
3.117188,-6634.458,-12176.98,512
3.119141,-6646.901,-12178.2,512
3.121094,-6643.808,-12179.81,512
3.123047,-6641.237,-12187.35,512
3.125,-6615.287,-12184.15,512
3.126953,-6598.305,-12182.24,512
3.128906,-6583.07,-12184.73,512
3.130859,-6564.104,-12196.75,512
3.132812,-6550.559,-12192.12,512
3.134766,-6540.771,-12200.23,512
3.136719,-6538.959,-12226.32,512
3.138672,-6531.019,-12214.13,512
3.140625,-6534.246,-12184.78,512
3.142578,-6532.18,-12186.53,512
3.144531,-6517.37,-12190.43,512
3.146484,-6518.663,-12210.96,512
3.148438,-6521.606,-12232.85,512
3.150391,-6529.087,-12221.9,512
3.152344,-6541.601,-12192.48,512
3.154297,-6534.855,-12195.88,512
3.15625,-6526.601,-12173.74,512
3.158203,-6536.082,-12163.31,512
3.160156,-6511.192,-12164.5,512
3.162109,-6510.1,-12167.27,512
3.164062,-6512.464,-12175.25,512
3.166016,-6514.662,-12180.09,512
3.167969,-6516.055,-12195.34,512
3.169922,-6519.908,-12210.4,512
3.171875,-6500.041,-12198.98,512
3.173828,-6506.016,-12191.06,512
3.175781,-6519.247,-12190.06,512
3.177734,-6520.218,-12179.28,512
3.179688,-6505.817,-12163.13,512
3.181641,-6505.726,-12188.45,512
3.183594,-6500.114,-12189.26,512
3.185547,-6497.029,-12190.14,512
3.1875,-6501.283,-12189.33,512
3.189453,-6515.349,-12186.01,512
3.191406,-6511.117,-12189.78,512
3.193359,-6513.329,-12184.51,512
3.195312,-6502.25,-12170.97,512
3.197266,-6497.262,-12177.51,512
3.199219,-6488.853,-12188.4,512
3.201172,-6502.828,-12199.17,512
3.203125,-6497.039,-12176.91,512
3.205078,-6488.823,-12175.29,512
3.207031,-6484.663,-12173.86,512
3.208984,-6488.311,-12184.67,512
3.210938,-6503.318,-12208.15,512
3.212891,-6488.938,-12193.01,512
3.214844,-6485.516,-12171.78,512
3.216797,-6488.832,-12176.26,512
3.21875,-6488.782,-12197.76,512
3.220703,-6488.795,-12208.94,512
3.222656,-6488.516,-12232.85,512
3.224609,-6468.496,-12228.16,512
3.226562,-6472.389,-12214.44,512
3.228516,-6488.212,-12200.12,512
3.230469,-6495.076,-12176.85,512
3.232422,-6490.606,-12184.05,512
3.234375,-6484.219,-12174.45,512
3.236328,-6470.179,-12185.98,512
3.238281,-6481.155,-12198.14,512
3.240234,-6483.239,-12171.34,512
3.242188,-6476.899,-12195.13,512
3.244141,-6475.171,-12193.94,512
3.246094,-6463.048,-12174.18,512
3.248047,-6476.562,-12170.33,512
3.25,-6473.47,-12164.81,512
3.251953,-6478.396,-12186.33,512
3.253906,-6479.889,-12214.7,512
3.255859,-6465.688,-12228.64,512
3.257812,-6455.746,-12225.1,512
3.259766,-6455.558,-12208.73,512
3.261719,-6458.63,-12178.09,512
3.263672,-6449.49,-12161.48,512
3.265625,-6457.139,-12180.57,512
3.267578,-6449.741,-12188.82,512
3.269531,-6439.902,-12177.23,512
3.271484,-6446.074,-12185.09,512
3.273438,-6440.636,-12185.98,512
3.275391,-6440.477,-12183.25,512
3.277344,-6440.375,-12186.67,512
3.279297,-6433.806,-12186.4,512
3.28125,-6438.997,-12199.64,512
3.283203,-6421.613,-12202.71,512
3.285156,-6419.878,-12196.25,512
3.287109,-6420.415,-12186.48,512
3.289062,-6417.946,-12177.74,512
3.291016,-6417.931,-12183.59,512
3.292969,-6422.581,-12196.49,512
3.294922,-6407.687,-12188.65,512
3.296875,-6412.919,-12204.74,512
3.298828,-6396.178,-12185.59,512
3.300781,-6390.849,-12180.47,512
3.302734,-6385.604,-12187.88,512
3.304688,-6394.54,-12191.66,512
3.306641,-6407.506,-12210.31,512
3.308594,-6388.942,-12199.39,512
3.310547,-6393.502,-12218.26,512
3.3125,-6378.914,-12249.4,512
3.314453,-6376.881,-12262.4,512
3.316406,-6377.43,-12243.1,512
3.318359,-6387.163,-12200.72,512
3.320312,-6392.839,-12197.46,512
3.322266,-6391.448,-12212.07,512
3.324219,-6378.547,-12215.84,512
3.326172,-6379.605,-12215.21,512
3.328125,-6388.182,-12210.05,512
3.330078,-6378.788,-12199.06,512
3.332031,-6396.358,-12206.29,512
3.333984,-6403.452,-12227.28,512
3.335938,-6397.873,-12196.46,512
3.337891,-6405.324,-12189.83,512
3.339844,-6421.797,-12220.21,512
3.341797,-6418.496,-12204.39,512
3.34375,-6417.306,-12184.42,512
3.345703,-6432.611,-12199.32,512
3.347656,-6424.111,-12196.87,512
3.349609,-6418.543,-12215.36,512
3.351562,-6435.283,-12207.04,512
3.353516,-6445.395,-12204.66,512
3.355469,-6450.881,-12215.05,512
3.357422,-6455.709,-12211.38,512
3.359375,-6471.765,-12206.17,512
3.361328,-6469.168,-12192.28,512
3.363281,-6475.071,-12190.61,512
3.365234,-6476.99,-12183.33,512
3.367188,-6482.917,-12184.77,512
3.369141,-6491.746,-12195.77,512
3.371094,-6486.254,-12197.7,512
3.373047,-6496.922,-12197.52,512
3.375,-6497.052,-12171.58,512
3.376953,-6501.63,-12156.89,512
3.378906,-6517.229,-12170.17,512
3.380859,-6518.058,-12172.85,512
3.382812,-6518.217,-12170.43,512
3.384766,-6524.449,-12179.16,512
3.386719,-6520.834,-12182.46,512
3.388672,-6515.436,-12186.1,512
3.390625,-6513.763,-12177.6,512
3.392578,-6517.932,-12183.93,512
3.394531,-6510.234,-12171.09,512
3.396484,-6512.042,-12171.95,512
3.398438,-6523.171,-12193.67,512
3.400391,-6510.326,-12193.95,512
3.402344,-6525.094,-12215.55,512
3.404297,-6532.256,-12232.83,512
3.40625,-6516.729,-12215.9,512
3.408203,-6523.873,-12197.86,512
3.410156,-6525.053,-12195.33,512
3.412109,-6518.307,-12184.63,512
3.414062,-6527.796,-12186.38,512
3.416016,-6525.224,-12199.14,512
3.417969,-6520.282,-12183.77,512
3.419922,-6521.703,-12184.58,512
3.421875,-6520.144,-12200.86,512
3.423828,-6510.656,-12198.17,512
3.425781,-6520.766,-12186.95,512
3.427734,-6519.405,-12171.98,512
3.429688,-6536.865,-12164.02,512
3.431641,-6538.644,-12164.75,512
3.433594,-6530.27,-12179.42,512
3.435547,-6536.659,-12185.28,512
3.4375,-6530.559,-12177.84,512
3.439453,-6521.565,-12178.45,512
3.441406,-6522.893,-12182.78,512
3.443359,-6511.548,-12189.85,512
3.445312,-6517.536,-12165.25,512
3.447266,-6516.897,-12160.69,512
3.449219,-6513.69,-12179.49,512
3.451172,-6520.246,-12186.77,512
3.453125,-6515.218,-12197.46,512
3.455078,-6513.4,-12186.61,512
3.457031,-6523.754,-12188.34,512
3.458984,-6516.494,-12176.47,512
3.460938,-6518.943,-12174.9,512
3.462891,-6512.715,-12168.68,512
3.464844,-6509.206,-12169.08,512
3.466797,-6520.967,-12173,512
3.46875,-6526.829,-12164.32,512
3.470703,-6539.6,-12187.59,512
3.472656,-6532.849,-12179.94,512
3.474609,-6518.998,-12163.52,512
3.476562,-6517.964,-12180.15,512
3.478516,-6516.889,-12195.95,512
3.480469,-6509.918,-12190.45,512
3.482422,-6528.354,-12175.55,512
3.484375,-6533.775,-12189.57,512
3.486328,-6532.293,-12204.25,512
3.488281,-6527.177,-12215.99,512
3.490234,-6526.789,-12211.41,512
3.492188,-6513.056,-12187.78,512
3.494141,-6514.123,-12181.06,512
3.496094,-6535.618,-12198.73,512
3.498047,-6538.605,-12187,512
3.5,-6522.277,-12237.92,512
3.501953,-6534.316,-12201.29,512
3.503906,-6525.155,-12158.23,512
3.505859,-6519.049,-12215.91,512
3.507812,-6525.045,-12228.1,512
3.509766,-6529.236,-12208.43,512
3.511719,-6524.975,-12178.8,512
3.513672,-6521.994,-12178.1,512
3.515625,-6522.175,-12169.47,512
3.517578,-6517.925,-12178.15,512
3.519531,-6521.471,-12155.64,512
3.521484,-6532.899,-12199.54,512
3.523438,-6522.234,-12178.53,512
3.525391,-6516.076,-12142.94,512
3.527344,-6518.272,-12165.61,512
3.529297,-6520.314,-12190.84,512
3.53125,-6505.68,-12203.5,512
3.533203,-6492.405,-12201.85,512
3.535156,-6520.269,-12236.52,512
3.537109,-6511.976,-12145.88,512
3.539062,-6514.262,-12154.29,512
3.541016,-6509.512,-12133.1,512
3.542969,-6507.876,-12137.63,512
3.544922,-6519.025,-12153.6,512
3.546875,-6503.102,-12145.67,512
3.548828,-6507.514,-12157.71,512
3.550781,-6510.52,-12160.34,512
3.552734,-6513.482,-12163.17,512
3.554688,-6526.567,-12155.34,512
3.556641,-6535.93,-12162.72,512
3.558594,-6533.93,-12175.9,512
3.560547,-6527.754,-12178.92,512
3.5625,-6507.958,-12180.5,512
3.564453,-6506.442,-12196.37,512
3.566406,-6506.675,-12182.52,512
3.568359,-6517.03,-12175.54,512
3.570312,-6523.655,-12169.07,512
3.572266,-6524.937,-12158.31,512
3.574219,-6526.216,-12166.25,512
3.576172,-6532.03,-12152.41,512
3.578125,-6534.517,-12151.07,512
3.580078,-6531.995,-12168.38,512
3.582031,-6524.211,-12178.44,512
3.583984,-6522.297,-12197.88,512
3.585938,-6531.67,-12209.9,512
3.587891,-6514.318,-12188.79,512
3.589844,-6516.234,-12166.43,512
3.591797,-6524.878,-12140.46,512
3.59375,-6528.724,-12159.75,512
3.595703,-6526.401,-12174.7,512
3.597656,-6533.123,-12182.78,512
3.599609,-6523.367,-12187.71,512
3.601562,-6516.125,-12161.83,512
3.603516,-6519.717,-12160.26,512
3.605469,-6522.874,-12172.44,512
3.607422,-6525.71,-12163.25,512
3.609375,-6522.772,-12167.25,512
3.611328,-6531.155,-12166.74,512
3.613281,-6549.228,-12185.18,512
3.615234,-6540.093,-12183.79,512
3.617188,-6529.684,-12187.79,512
3.619141,-6533.191,-12198.46,512
3.621094,-6546.556,-12193.95,512
3.623047,-6546.64,-12188.34,512
3.625,-6558.035,-12172,512
3.626953,-6546.32,-12160.15,512
3.628906,-6540.908,-12178.37,512
3.630859,-6535.119,-12183.88,512
3.632812,-6532.587,-12180.2,512
3.634766,-6528.323,-12200.63,512
3.636719,-6528.147,-12209.94,512
3.638672,-6532.915,-12199.96,512
3.640625,-6537.228,-12201.06,512
3.642578,-6541.174,-12195.7,512
3.644531,-6541.737,-12194.8,512
3.646484,-6542.412,-12190.77,512
3.648438,-6552.428,-12162.46,512
3.650391,-6549.337,-12178.15,512
3.652344,-6546.669,-12187.89,512
3.654297,-6541.088,-12178.32,512
3.65625,-6555.683,-12214.39,512
3.658203,-6557.657,-12216.86,512
3.660156,-6558.187,-12214.05,512
3.662109,-6538.758,-12202.19,512
3.664062,-6548.528,-12203.46,512
3.666016,-6554.527,-12196.19,512
3.667969,-6560.578,-12188.67,512
3.669922,-6563.96,-12208.94,512
3.671875,-6556.675,-12231.71,512
3.673828,-6563.91,-12245.39,512
3.675781,-6545.43,-12214.37,512
3.677734,-6545.9,-12189.18,512
3.679688,-6557.51,-12196.23,512
3.681641,-6557.009,-12191.35,512
3.683594,-6555.767,-12178.15,512
3.685547,-6566.916,-12202.95,512
3.6875,-6562.739,-12195.64,512
3.689453,-6562.046,-12204.75,512
3.691406,-6559.294,-12214.58,512
3.693359,-6550.647,-12196.62,512
3.695312,-6558.397,-12205.48,512
3.697266,-6559.721,-12214.57,512
3.699219,-6553.847,-12210.57,512
3.701172,-6568.172,-12216.94,512
3.703125,-6563.76,-12223.54,512
3.705078,-6552.989,-12212.6,512
3.707031,-6559.926,-12218.01,512
3.708984,-6559.416,-12210.22,512
3.710938,-6560.103,-12202.05,512
3.712891,-6568.469,-12189.62,512
3.714844,-6574.128,-12209.47,512
3.716797,-6573.192,-12214.09,512
3.71875,-6556.998,-12212.26,512
3.720703,-6565.427,-12204.89,512
3.722656,-6569.545,-12222.88,512
3.724609,-6552.566,-12218.97,512
3.726562,-6555.465,-12216.38,512
3.728516,-6570.335,-12234.55,512
3.730469,-6565.852,-12229.39,512
3.732422,-6551.063,-12231.74,512
3.734375,-6567.558,-12220.36,512
3.736328,-6553.333,-12207.11,512
3.738281,-6550.473,-12234.37,512
3.740234,-6576.564,-12235.52,512
3.742188,-6574.974,-12221.35,512
3.744141,-6568.457,-12216.99,512
3.746094,-6567.99,-12217.5,512
3.748047,-6573.624,-12229.9,512
3.75,-6551.184,-12211.39,512
3.751953,-6545.058,-12242.99,512
3.753906,-6545.631,-12266.89,512
3.755859,-6549.44,-12249.16,512
3.757812,-6548.207,-12236.52,512
3.759766,-6548.459,-12224.08,512
3.761719,-6561.043,-12223.13,512
3.763672,-6558.538,-12226.17,512
3.765625,-6563.117,-12235.2,512
3.767578,-6579.631,-12254.44,512
3.769531,-6574.552,-12251.22,512
3.771484,-6554.008,-12227.01,512
3.773438,-6573.792,-12240.05,512
3.775391,-6553.932,-12231.32,512
3.777344,-6551.859,-12256.78,512
3.779297,-6560.262,-12267.06,512
3.78125,-6554.101,-12246.29,512
3.783203,-6582.685,-12233.84,512
3.785156,-6587.796,-12193.74,512
3.787109,-6563.253,-12206.64,512
3.789062,-6578.643,-12213.1,512
3.791016,-6580.84,-12211.09,512
3.792969,-6583.294,-12211.56,512
3.794922,-6574.676,-12216.51,512
3.796875,-6579.396,-12235.12,512
3.798828,-6596.044,-12249.37,512
3.800781,-6596.975,-12230.9,512
3.802734,-6586.193,-12229.27,512
3.804688,-6590.938,-12254,512
3.806641,-6577.412,-12239.9,512
3.808594,-6591.877,-12230.3,512
3.810547,-6588.476,-12248.79,512
3.8125,-6588.171,-12236.84,512
3.814453,-6588.156,-12215.02,512
3.816406,-6589.202,-12213.84,512
3.818359,-6596.765,-12236.16,512
3.820312,-6583.775,-12228.06,512
3.822266,-6587.959,-12230.85,512
3.824219,-6593.766,-12248.84,512
3.826172,-6586.276,-12227.32,512
3.828125,-6582.687,-12221.78,512
3.830078,-6579.881,-12222.68,512
3.832031,-6587.917,-12218.1,512
3.833984,-6581.614,-12211.81,512
3.835938,-6568.201,-12220.01,512
3.837891,-6580.935,-12243.62,512
3.839844,-6577.155,-12246.71,512
3.841797,-6560.052,-12232.6,512
3.84375,-6567.465,-12217.57,512
3.845703,-6568.517,-12206.28,512
3.847656,-6567.757,-12206.75,512
3.849609,-6560.894,-12205.77,512
3.851562,-6556.73,-12208.55,512
3.853516,-6553.916,-12220.82,512
3.855469,-6579.084,-12230.04,512
3.857422,-6573.998,-12204.65,512
3.859375,-6573.164,-12206.42,512
3.861328,-6571.715,-12208.33,512
3.863281,-6568.018,-12195.63,512
3.865234,-6566.381,-12211.96,512
3.867188,-6553.94,-12207.44,512
3.869141,-6541.05,-12215.97,512
3.871094,-6536.342,-12228.94,512
3.873047,-6511.881,-12240.14,512
3.875,-6500.542,-12255.19,512
3.876953,-6478.599,-12212.89,512
3.878906,-6474.333,-12227.54,512
3.880859,-6460.837,-12248.83,512
3.882812,-6467.846,-12243.59,512
3.884766,-6476.798,-12265.99,512
3.886719,-6471.896,-12291.59,512
3.888672,-6488.594,-12292.95,512
3.890625,-6493.382,-12300.75,512
3.892578,-6493.748,-12288.51,512
3.894531,-6527.979,-12278.6,512
3.896484,-6576.265,-12280.32,512
3.898438,-6586.938,-12278.99,512
3.900391,-6583.858,-12292.47,512
3.902344,-6584.817,-12310.59,512
3.904297,-6607.921,-12312.99,512
3.90625,-6628.198,-12292.65,512
3.908203,-6644.761,-12294.95,512
3.910156,-6647.83,-12281.7,512
3.912109,-6654.297,-12248.43,512
3.914062,-6691.884,-12235.01,512
3.916016,-6687.857,-12187.4,512
3.917969,-6680.258,-12178.02,512
3.919922,-6691.825,-12209.6,512
3.921875,-6674.29,-12238.69,512
3.923828,-6656.582,-12218.9,512
3.925781,-6641.644,-12221.08,512
3.927734,-6616.745,-12216.59,512
3.929688,-6606.408,-12207.78,512
3.931641,-6588.832,-12198.13,512
3.933594,-6568.706,-12197.04,512
3.935547,-6566.222,-12214.97,512
3.9375,-6565.917,-12220.84,512
3.939453,-6567.573,-12225.35,512
3.941406,-6571.479,-12223.26,512
3.943359,-6557.08,-12212.26,512
3.945312,-6555.547,-12221.23,512
3.947266,-6557.399,-12228.31,512
3.949219,-6553.815,-12228.78,512
3.951172,-6549.557,-12189.72,512
3.953125,-6555.332,-12182.32,512
3.955078,-6563.21,-12193.84,512
3.957031,-6560.889,-12192.48,512
3.958984,-6555.431,-12193.42,512
3.960938,-6554.983,-12219.95,512
3.962891,-6544.119,-12240.56,512
3.964844,-6540.299,-12231.32,512
3.966797,-6522.576,-12217.01,512
3.96875,-6538.591,-12204.78,512
3.970703,-6540.759,-12174.44,512
3.972656,-6543.012,-12179.78,512
3.974609,-6540.92,-12165.34,512
3.976562,-6547.062,-12170.83,512
3.978516,-6539.775,-12185.45,512
3.980469,-6541.309,-12191.45,512
3.982422,-6535.586,-12180.37,512
3.984375,-6535.487,-12194.5,512
3.986328,-6538.853,-12202.88,512
3.988281,-6549.283,-12189.18,512
3.990234,-6539.054,-12193.49,512
3.992188,-6529.802,-12193.89,512
3.994141,-6531.833,-12203.43,512
3.996094,-6534.056,-12207.25,512
3.998047,-6537.801,-12194.87,512
4,-6533.241,-12181.74,512
4.001953,-6534.337,-12203.28,512
4.003906,-6529.536,-12195.07,512
4.005859,-6537.447,-12186.9,512
4.007812,-6526.027,-12191.92,512
4.009766,-6519.191,-12178.21,512
4.011719,-6522.25,-12178.83,512
4.013672,-6525.797,-12183.02,512
4.015625,-6520.282,-12207.15,512
4.017578,-6506.153,-12193.03,512
4.019531,-6508.131,-12198.67,512
4.021484,-6509.051,-12195.85,512
4.023438,-6499.303,-12183.75,512
4.025391,-6503.261,-12185.07,512
4.027344,-6496.681,-12191.05,512
4.029297,-6485.234,-12202.17,512
4.03125,-6490.701,-12188.13,512
4.033203,-6483.888,-12182.17,512
4.035156,-6503.879,-12176.43,512
4.037109,-6501.28,-12183.87,512
4.039062,-6491.634,-12205.16,512
4.041016,-6471.796,-12227.39,512
4.042969,-6471.686,-12160.82,512
4.044922,-6488.979,-12136.43,512
4.046875,-6487.881,-12136.69,512
4.048828,-6479.842,-12146.21,512
4.050781,-6476.071,-12162.45,512
4.052734,-6466.03,-12155.41,512
4.054688,-6487.349,-12188.36,512
4.056641,-6498.114,-12206.11,512
4.058594,-6482.486,-12199.62,512
4.060547,-6472.828,-12185.95,512
4.0625,-6470.958,-12161.66,512
4.064453,-6467.58,-12164,512
4.066406,-6466.654,-12170.61,512
4.068359,-6465.117,-12167.89,512
4.070312,-6459.825,-12181.72,512
4.072266,-6451.247,-12168.52,512
4.074219,-6450.371,-12162.39,512
4.076172,-6439.357,-12169.74,512
4.078125,-6444.189,-12178.47,512
4.080078,-6428.347,-12168.47,512
4.082031,-6424.602,-12165.54,512
4.083984,-6430.988,-12163.81,512
4.085938,-6424.478,-12171.49,512
4.087891,-6424.12,-12179.48,512
4.089844,-6427.079,-12184.11,512
4.091797,-6414.72,-12189.32,512
4.09375,-6415.836,-12190.8,512
4.095703,-6418.657,-12191.7,512
4.097656,-6409.217,-12188.1,512
4.099609,-6412.205,-12198.89,512
4.101562,-6415.251,-12216.92,512
4.103516,-6416.605,-12243.74,512
4.105469,-6407.975,-12264.36,512
4.107422,-6408.215,-12247.04,512
4.109375,-6406.077,-12283.05,512
4.111328,-6411.5,-12291.02,512
4.113281,-6407.293,-12252.02,512
4.115234,-6398.873,-12226.99,512
4.117188,-6418.314,-12190.14,512
4.119141,-6449.411,-12188.79,512
4.121094,-6432.474,-12212.74,512
4.123047,-6425.376,-12215.76,512
4.125,-6431.018,-12221.3,512
4.126953,-6431.42,-12216.65,512
4.128906,-6411.295,-12224.41,512
4.130859,-6424.096,-12209.93,512
4.132812,-6406.862,-12201.85,512
4.134766,-6431.647,-12217.68,512
4.136719,-6443.22,-12234.59,512
4.138672,-6442.969,-12251.61,512
4.140625,-6441.323,-12244.64,512
4.142578,-6438.296,-12217.91,512
4.144531,-6435.879,-12197.05,512
4.146484,-6433.13,-12199.68,512
4.148438,-6459.816,-12176.09,512
4.150391,-6464.319,-12162.48,512
4.152344,-6468.215,-12174.83,512
4.154297,-6478.988,-12175.25,512
4.15625,-6480.067,-12186.29,512
4.158203,-6485.638,-12178.83,512
4.160156,-6475.267,-12182.16,512
4.162109,-6489.544,-12199.71,512
4.164062,-6490.621,-12172.54,512
4.166016,-6477.665,-12173.29,512
4.167969,-6503.947,-12198.04,512
4.169922,-6487.336,-12172.74,512
4.171875,-6494.305,-12201.54,512
4.173828,-6517.557,-12229.94,512
4.175781,-6499.869,-12214.7,512
4.177734,-6509.481,-12181.84,512
4.179688,-6526.657,-12185.81,512
4.181641,-6516.291,-12184.84,512
4.183594,-6523.418,-12171.96,512
4.185547,-6534.797,-12177.71,512
4.1875,-6525.492,-12186.97,512
4.189453,-6522.928,-12191.46,512
4.191406,-6533.715,-12171.7,512
4.193359,-6535.769,-12211.54,512
4.195312,-6512.7,-12207.87,512
4.197266,-6519.692,-12198.16,512
4.199219,-6521.149,-12205.71,512
4.201172,-6512.824,-12174.26,512
4.203125,-6516.861,-12177.33,512
4.205078,-6519.294,-12183.2,512
4.207031,-6531.662,-12187.22,512
4.208984,-6527.629,-12166.78,512
4.210938,-6541.761,-12171.77,512
4.212891,-6533.412,-12153.15,512
4.214844,-6534.595,-12152.55,512
4.216797,-6534.757,-12175.7,512
4.21875,-6520.163,-12187.87,512
4.220703,-6519.323,-12213.5,512
4.222656,-6521.547,-12217.71,512
4.224609,-6542.049,-12212.78,512
4.226562,-6535.88,-12176.6,512
4.228516,-6531.329,-12153.67,512
4.230469,-6541.084,-12133.35,512
4.232422,-6527.704,-12145.94,512
4.234375,-6532.335,-12162.47,512
4.236328,-6537.793,-12181.59,512
4.238281,-6537.139,-12191.82,512
4.240234,-6527.4,-12199.61,512
4.242188,-6529.062,-12196.67,512
4.244141,-6534.385,-12193.02,512
4.246094,-6534.891,-12169.31,512
4.248047,-6555.394,-12165.03,512
4.25,-6535.294,-12154.93,512
4.251953,-6532.407,-12165.98,512
4.253906,-6527.243,-12182.93,512
4.255859,-6516.1,-12188.74,512
4.257812,-6519.035,-12188.67,512
4.259766,-6518.552,-12171.05,512
4.261719,-6506.595,-12151.64,512
4.263672,-6512.728,-12177.17,512
4.265625,-6519.565,-12186.13,512
4.267578,-6520.88,-12153.93,512
4.269531,-6516.752,-12150.56,512
4.271484,-6516.663,-12147.31,512
4.273438,-6511.907,-12160.96,512
4.275391,-6514.347,-12161.98,512
4.277344,-6535.186,-12175.45,512
4.279297,-6532.343,-12175.46,512
4.28125,-6526.347,-12170.12,512
4.283203,-6521.162,-12182.98,512
4.285156,-6530.797,-12188.9,512
4.287109,-6522.359,-12187.03,512
4.289062,-6520.722,-12180.65,512
4.291016,-6529.083,-12156.5,512
4.292969,-6540.455,-12146.43,512
4.294922,-6539.674,-12156.78,512
4.296875,-6537.266,-12201.1,512
4.298828,-6532.666,-12179.61,512
4.300781,-6533.753,-12167.33,512
4.302734,-6534.535,-12182.79,512
4.304688,-6533.442,-12188.95,512
4.306641,-6546.122,-12190.19,512
4.308594,-6538.964,-12179.85,512
4.310547,-6535.81,-12196.13,512
4.3125,-6528.283,-12200.43,512
4.314453,-6522.165,-12209.99,512
4.316406,-6531.865,-12201.27,512
4.318359,-6531.774,-12188.24,512
4.320312,-6538.024,-12186.96,512
4.322266,-6538.286,-12185.64,512
4.324219,-6546.644,-12206.34,512
4.326172,-6535.188,-12179.66,512
4.328125,-6541.496,-12179.63,512
4.330078,-6528.653,-12182.91,512
4.332031,-6534.275,-12196.63,512
4.333984,-6540.902,-12223.51,512
4.335938,-6534.432,-12180.02,512
4.337891,-6529.513,-12173.18,512
4.339844,-6531.594,-12182.29,512
4.341797,-6543.127,-12169.66,512
4.34375,-6520.553,-12160.55,512
4.345703,-6530.189,-12172.28,512
4.347656,-6526.85,-12180.66,512
4.349609,-6520.621,-12174.07,512
4.351562,-6516.364,-12182.84,512
4.353516,-6523.284,-12176.62,512
4.355469,-6531.626,-12172.44,512
4.357422,-6523.891,-12197.43,512
4.359375,-6520.461,-12152.79,512
4.361328,-6552.2,-12164.37,512
4.363281,-6539.981,-12183.82,512
4.365234,-6538.122,-12176.56,512
4.367188,-6539.321,-12193.46,512
4.369141,-6521.368,-12212.36,512
4.371094,-6522.883,-12188.14,512
4.373047,-6535.294,-12178.54,512
4.375,-6530.884,-12161.33,512
4.376953,-6521.541,-12180.36,512
4.378906,-6528.551,-12191.11,512
4.380859,-6531.069,-12162.23,512
4.382812,-6542.343,-12168.42,512
4.384766,-6528.062,-12172.67,512
4.386719,-6524.862,-12171.01,512
4.388672,-6526.674,-12176.97,512
4.390625,-6532.564,-12199.98,512
4.392578,-6530.812,-12208.11,512
4.394531,-6519.145,-12215.18,512
4.396484,-6521.629,-12201.03,512
4.398438,-6539.761,-12187.27,512
4.400391,-6547.222,-12204.67,512
4.402344,-6536.11,-12203.33,512
4.404297,-6539.934,-12194.22,512
4.40625,-6554.135,-12175.48,512
4.408203,-6557.477,-12176.99,512
4.410156,-6549.599,-12171.89,512
4.412109,-6540.249,-12161.96,512
4.414062,-6539.706,-12165.66,512
4.416016,-6535.815,-12179.83,512
4.417969,-6532.625,-12207.08,512
4.419922,-6526.868,-12218.32,512
4.421875,-6521.749,-12208.63,512
4.423828,-6534.757,-12194.99,512
4.425781,-6551.14,-12154.01,512
4.427734,-6540.662,-12156.67,512
4.429688,-6532.219,-12165.97,512
4.431641,-6530.63,-12144.51,512
4.433594,-6524.955,-12152.63,512
4.435547,-6534.342,-12168.28,512
4.4375,-6537.293,-12195.32,512
4.439453,-6522.602,-12168.54,512
4.441406,-6539.244,-12162.59,512
4.443359,-6540.047,-12188.57,512
4.445312,-6532.147,-12186.42,512
4.447266,-6543.546,-12189.59,512
4.449219,-6545.354,-12190.37,512
4.451172,-6551.8,-12183.62,512
4.453125,-6544.482,-12169.79,512
4.455078,-6553.639,-12190.32,512
4.457031,-6544.148,-12171.95,512
4.458984,-6532.32,-12163.13,512
4.460938,-6539.015,-12179.6,512
4.462891,-6518.99,-12178.41,512
4.464844,-6516.806,-12159.51,512
4.466797,-6534.823,-12175.22,512
4.46875,-6532.318,-12170.81,512
4.470703,-6547.458,-12209.88,512
4.472656,-6532.435,-12219.23,512
4.474609,-6519.763,-12223.76,512
4.476562,-6510.553,-12246.74,512
4.478516,-6515.633,-12233.74,512
4.480469,-6530.732,-12207.68,512
4.482422,-6541.066,-12173.33,512
4.484375,-6558.812,-12133.67,512
4.486328,-6541.608,-12151.57,512
4.488281,-6539.798,-12176.27,512
4.490234,-6537.125,-12208.21,512
4.492188,-6525.994,-12219.99,512
4.494141,-6527.027,-12211.68,512
4.496094,-6527.148,-12166.1,512
4.498047,-6537.923,-12145,512
4.5,-6532.794,-12155.88,512
4.501953,-6518.263,-12158.67,512
4.503906,-6517.562,-12181.71,512
4.505859,-6525.111,-12189.09,512
4.507812,-6526.823,-12163.28,512
4.509766,-6519.918,-12150.29,512
4.511719,-6510.487,-12152.7,512
4.513672,-6516.92,-12157.28,512
4.515625,-6511.172,-12161.48,512
4.517578,-6512.018,-12164.52,512
4.519531,-6513.605,-12172.88,512
4.521484,-6514.005,-12181.39,512
4.523438,-6513.021,-12188.77,512
4.525391,-6515.108,-12171.54,512
4.527344,-6516.411,-12162.31,512
4.529297,-6515.557,-12158.77,512
4.53125,-6523.091,-12168.84,512
4.533203,-6508.162,-12167.25,512
4.535156,-6507.106,-12157.2,512
4.537109,-6522.961,-12165.32,512
4.539062,-6537.418,-12187.02,512
4.541016,-6513.579,-12156.71,512
4.542969,-6516.615,-12159.7,512
4.544922,-6513.495,-12163.09,512
4.546875,-6505.115,-12165.44,512
4.548828,-6506.044,-12172.32,512
4.550781,-6507.201,-12173.88,512
4.552734,-6499.881,-12180.88,512
4.554688,-6511.687,-12213.15,512
4.556641,-6505.48,-12234.08,512
4.558594,-6499.262,-12226.26,512
4.560547,-6493.398,-12229.14,512
4.5625,-6496.482,-12192.43,512
4.564453,-6505.132,-12150.37,512
4.566406,-6511.559,-12155.22,512
4.568359,-6515.264,-12152.88,512
4.570312,-6510.617,-12154.51,512
4.572266,-6527.049,-12151.41,512
4.574219,-6529.045,-12152.82,512
4.576172,-6513.627,-12153.08,512
4.578125,-6505.63,-12161.07,512
4.580078,-6502.434,-12153.87,512
4.582031,-6502.713,-12170.62,512
4.583984,-6493.743,-12177.65,512
4.585938,-6499.845,-12193.63,512
4.587891,-6504.318,-12199.07,512
4.589844,-6495.945,-12199.74,512
4.591797,-6510.642,-12165.29,512
4.59375,-6507.346,-12147.01,512
4.595703,-6512.196,-12151.69,512
4.597656,-6516.862,-12174.52,512
4.599609,-6503.189,-12178.18,512
4.601562,-6499.775,-12188.8,512
4.603516,-6491.541,-12191.2,512
4.605469,-6490.277,-12182.99,512
4.607422,-6487.966,-12180.35,512
4.609375,-6502.25,-12181.08,512
4.611328,-6514.726,-12186.63,512
4.613281,-6501.659,-12190.61,512
4.615234,-6498.805,-12177.64,512
4.617188,-6500.816,-12166.23,512
4.619141,-6508.25,-12176.18,512
4.621094,-6511.272,-12178.55,512
4.623047,-6503.738,-12173.73,512
4.625,-6500.202,-12172.94,512
4.626953,-6501.361,-12184.98,512
4.628906,-6502.172,-12195.68,512
4.630859,-6508.391,-12179.37,512
4.632812,-6508.937,-12170.79,512
4.634766,-6506.926,-12168.94,512
4.636719,-6510.336,-12160.09,512
4.638672,-6507.594,-12162.06,512
4.640625,-6503.842,-12174.26,512
4.642578,-6500.619,-12193.85,512
4.644531,-6506.042,-12207.11,512
4.646484,-6500.936,-12224.7,512
4.648438,-6481.468,-12203.27,512
4.650391,-6508.915,-12172.4,512
4.652344,-6526.744,-12154.5,512
4.654297,-6531.806,-12128.5,512
4.65625,-6512.416,-12116.68,512
4.658203,-6508.137,-12114.6,512
4.660156,-6520.056,-12143.73,512
4.662109,-6505.916,-12144.49,512
4.664062,-6500.304,-12146.97,512
4.666016,-6505.397,-12145.46,512
4.667969,-6509.203,-12163.79,512
4.669922,-6503.2,-12158.77,512
4.671875,-6508.116,-12174.06,512
4.673828,-6507.993,-12168,512
4.675781,-6500.688,-12158.48,512
4.677734,-6507.948,-12155.75,512
4.679688,-6521.5,-12149.04,512
4.681641,-6523.806,-12142.19,512
4.683594,-6522.852,-12149.75,512
4.685547,-6528.315,-12180.42,512
4.6875,-6522.75,-12173.67,512
4.689453,-6513.148,-12160.51,512
4.691406,-6517.982,-12156.38,512
4.693359,-6522.196,-12159.79,512
4.695312,-6515.86,-12137.9,512
4.697266,-6522.455,-12154.73,512
4.699219,-6514.438,-12155.83,512
4.701172,-6519.047,-12159.95,512
4.703125,-6507.671,-12178.23,512
4.705078,-6510.781,-12196.3,512
4.707031,-6508.729,-12211.61,512
4.708984,-6492.776,-12203.39,512
4.710938,-6497.287,-12146.44,512
4.712891,-6479.687,-12142.04,512
4.714844,-6490.574,-12144.14,512
4.716797,-6475.604,-12159.59,512
4.71875,-6454.187,-12146.78,512
4.720703,-6434.418,-12178.5,512
4.722656,-6419.176,-12165.17,512
4.724609,-6416.099,-12173.36,512
4.726562,-6409.277,-12184.41,512
4.728516,-6407.984,-12209.67,512
4.730469,-6419.644,-12247.31,512
4.732422,-6422.562,-12240.91,512
4.734375,-6424.944,-12263.46,512
4.736328,-6426.898,-12265.95,512
4.738281,-6465.111,-12259.4,512
4.740234,-6503.856,-12272.47,512
4.742188,-6519.55,-12269.73,512
4.744141,-6521.777,-12281.69,512
4.746094,-6528.235,-12285.01,512
4.748047,-6550.665,-12252.62,512
4.75,-6550.868,-12226.84,512
4.751953,-6564.13,-12234.65,512
4.753906,-6584.251,-12219.27,512
4.755859,-6602.115,-12216.59,512
4.757812,-6619.194,-12208.92,512
4.759766,-6638.537,-12178.96,512
4.761719,-6634.424,-12164.54,512
4.763672,-6628.948,-12156.78,512
4.765625,-6628.346,-12165.59,512
4.767578,-6608.633,-12149,512
4.769531,-6584.476,-12168.5,512
4.771484,-6559.45,-12199.17,512
4.773438,-6551.325,-12190.4,512
4.775391,-6525.851,-12179.89,512
4.777344,-6512.081,-12171.47,512
4.779297,-6506.18,-12164.9,512
4.78125,-6497.655,-12184.43,512
4.783203,-6505.676,-12184.08,512
4.785156,-6511.878,-12208.27,512
4.787109,-6499.078,-12184.46,512
4.789062,-6508.407,-12148.35,512
4.791016,-6511.419,-12149.64,512
4.792969,-6505.78,-12151.83,512
4.794922,-6492.26,-12136.46,512
4.796875,-6491.186,-12131.62,512
4.798828,-6504.156,-12146.57,512
4.800781,-6494.915,-12151.96,512
4.802734,-6496.679,-12162.22,512
4.804688,-6490.077,-12183.53,512
4.806641,-6476.82,-12178.86,512
4.808594,-6480.247,-12154.72,512
4.810547,-6478.473,-12170.48,512
4.8125,-6468.52,-12177.33,512
4.814453,-6478.039,-12199.8,512
4.816406,-6459.899,-12209.24,512
4.818359,-6462.43,-12193.97,512
4.820312,-6464.97,-12202.69,512
4.822266,-6475.027,-12165.47,512
4.824219,-6495.494,-12111.98,512
4.826172,-6492.23,-12125.6,512
4.828125,-6490.728,-12136.66,512
4.830078,-6492.438,-12148.05,512
4.832031,-6476.568,-12143.78,512
4.833984,-6461.884,-12130.5,512
4.835938,-6473.056,-12143.49,512
4.837891,-6471.028,-12157,512
4.839844,-6473.438,-12156.02,512
4.841797,-6466.091,-12157.42,512
4.84375,-6468.697,-12188.54,512
4.845703,-6465.161,-12189.63,512
4.847656,-6464.313,-12189.78,512
4.849609,-6466.086,-12157.76,512
4.851562,-6470.709,-12152.58,512
4.853516,-6471.17,-12159.85,512
4.855469,-6468.735,-12158.93,512
4.857422,-6484.8,-12183.56,512
4.859375,-6474.854,-12170.68,512
4.861328,-6474.958,-12182.75,512
4.863281,-6473.221,-12180.53,512
4.865234,-6482.529,-12178.78,512
4.867188,-6482.421,-12181.95,512
4.869141,-6463.55,-12160.75,512
4.871094,-6470.25,-12149.83,512
4.873047,-6462.242,-12136.5,512
4.875,-6472.516,-12151.22,512
4.876953,-6465.987,-12157.5,512
4.878906,-6453.291,-12160.97,512
4.880859,-6455.398,-12172.34,512
4.882812,-6461.944,-12174.44,512
4.884766,-6467.111,-12172.3,512
4.886719,-6472.277,-12185.92,512
4.888672,-6462.946,-12180.17,512
4.890625,-6455.777,-12172.87,512
4.892578,-6456.021,-12152.01,512
4.894531,-6462.31,-12167.7,512
4.896484,-6469.469,-12195.99,512
4.898438,-6459.756,-12188.46,512
4.900391,-6466.495,-12182.26,512
4.902344,-6461.437,-12187.18,512
4.904297,-6449.899,-12183.62,512
4.90625,-6438.953,-12183.88,512
4.908203,-6431.239,-12191.26,512
4.910156,-6430.062,-12185.29,512
4.912109,-6435.874,-12175.21,512
4.914062,-6437.283,-12162.29,512
4.916016,-6427.757,-12179.78,512
4.917969,-6416.718,-12173.14,512
4.919922,-6416.753,-12191.86,512
4.921875,-6414.796,-12209.85,512
4.923828,-6412.692,-12175.96,512
4.925781,-6407.833,-12173.74,512
4.927734,-6408.175,-12159.28,512
4.929688,-6393.259,-12144.51,512
4.931641,-6393.819,-12158.8,512
4.933594,-6395.796,-12164.73,512
4.935547,-6386.934,-12165.73,512
4.9375,-6379.593,-12188.9,512
4.939453,-6378.607,-12200.61,512
4.941406,-6381.476,-12220.21,512
4.943359,-6378.312,-12181.25,512
4.945312,-6379.786,-12142.91,512
4.947266,-6370.218,-12171.16,512
4.949219,-6363.103,-12178.7,512
4.951172,-6374.02,-12185.52,512
4.953125,-6360.601,-12184.03,512
4.955078,-6358.186,-12187.65,512
4.957031,-6366.262,-12193.34,512
4.958984,-6361.19,-12185.36,512
4.960938,-6355.329,-12184.07,512
4.962891,-6358.408,-12194.74,512
4.964844,-6360.216,-12204.34,512
4.966797,-6368.456,-12193.92,512
4.96875,-6375.584,-12190.07,512
4.970703,-6363.54,-12186.51,512
4.972656,-6374.827,-12177,512
4.974609,-6363.67,-12194.76,512
4.976562,-6364.097,-12225.89,512
4.978516,-6375.813,-12244.21,512
4.980469,-6372.184,-12209.82,512
4.982422,-6369.457,-12167.43,512
4.984375,-6385.705,-12163.19,512
4.986328,-6397.201,-12162.38,512
4.988281,-6408.925,-12161.91,512
4.990234,-6403.209,-12170.12,512
4.992188,-6398.006,-12159.03,512
4.994141,-6409.18,-12170.33,512
4.996094,-6422.043,-12177.83,512
4.998047,-6430.333,-12179.7,512
5,-6437.047,-12153.73,512
5.001953,-6437.927,-12166.19,512
5.003906,-6450.908,-12173.86,512
5.005859,-6455.706,-12182.23,512
5.007812,-6449.357,-12210.24,512
5.009766,-6454.955,-12222.11,512
5.011719,-6458.996,-12217.55,512
5.013672,-6474.719,-12181.93,512
5.015625,-6480.331,-12153.22,512
5.017578,-6482.266,-12168.63,512
5.019531,-6498.743,-12130.42,512
5.021484,-6502.025,-12149.85,512
5.023438,-6483.768,-12158.86,512
5.025391,-6482.825,-12150.76,512
5.027344,-6483.345,-12148.53,512
5.029297,-6496.054,-12163.45,512
5.03125,-6491.382,-12163.98,512
5.033203,-6478.818,-12159.67,512
5.035156,-6487.291,-12171.36,512
5.037109,-6491.53,-12190.5,512
5.039062,-6492.626,-12206.76,512
5.041016,-6493.617,-12177.59,512
5.042969,-6499.301,-12164.55,512
5.044922,-6500.047,-12167.53,512
5.046875,-6496.957,-12173.35,512
5.048828,-6509.766,-12177.45,512
5.050781,-6493.666,-12138.04,512
5.052734,-6500.658,-12136.54,512
5.054688,-6522.618,-12170.14,512
5.056641,-6509.793,-12175.42,512
5.058594,-6494.545,-12168.53,512
5.060547,-6501.348,-12181.54,512
5.0625,-6495.589,-12186.88,512
5.064453,-6494.546,-12170.64,512
5.066406,-6494.611,-12161,512
5.068359,-6497.462,-12174.4,512
5.070312,-6509.158,-12176.16,512
5.072266,-6506.493,-12172.46,512
5.074219,-6502.042,-12207.12,512
5.076172,-6477.81,-12197.27,512
5.078125,-6494.546,-12157.87,512
5.080078,-6512.997,-12142.08,512
5.082031,-6524.578,-12149.3,512
5.083984,-6528.154,-12160.59,512
5.085938,-6526.423,-12183.92,512
5.087891,-6507.867,-12166.57,512
5.089844,-6497.04,-12165.01,512
5.091797,-6504.185,-12162.05,512
5.09375,-6515.149,-12167.65,512
5.095703,-6520.688,-12175.14,512
5.097656,-6501.891,-12160.05,512
5.099609,-6487.052,-12146.88,512
5.101562,-6496.458,-12160.95,512
5.103516,-6503.549,-12165.46,512
5.105469,-6509.678,-12168.98,512
5.107422,-6505.243,-12176.32,512
5.109375,-6506.748,-12165.32,512
5.111328,-6502.045,-12149.73,512
5.113281,-6495.79,-12146.95,512
5.115234,-6491.302,-12145.42,512
5.117188,-6496.88,-12176.86,512
5.119141,-6479.63,-12175.32,512
5.121094,-6467.132,-12161.48,512
5.123047,-6486.164,-12187.46,512
5.125,-6473.393,-12171.01,512
5.126953,-6471.356,-12170.72,512
5.128906,-6471.779,-12144.89,512
5.130859,-6477.903,-12118.58,512
5.132812,-6488.835,-12111.98,512
5.134766,-6478.713,-12123.53,512
5.136719,-6467.259,-12119.97,512
5.138672,-6474.179,-12162.22,512
5.140625,-6456.153,-12157.75,512
5.142578,-6462.805,-12144.31,512
5.144531,-6469.551,-12149.02,512
5.146484,-6471.973,-12140.38,512
5.148438,-6470.827,-12142.5,512
5.150391,-6476.032,-12149.38,512
5.152344,-6472.153,-12133.21,512
5.154297,-6475.491,-12135.43,512
5.15625,-6481.158,-12134.55,512
5.158203,-6470.316,-12138.03,512
5.160156,-6465.15,-12131.81,512
5.162109,-6468.062,-12123.99,512
5.164062,-6468.618,-12138.98,512
5.166016,-6468.417,-12131.37,512
5.167969,-6471.751,-12141.72,512
5.169922,-6474.348,-12135.46,512
5.171875,-6472.331,-12135.14,512
5.173828,-6466.145,-12135.25,512
5.175781,-6462.633,-12134.64,512
5.177734,-6472.581,-12146.5,512
5.179688,-6479.283,-12150.06,512
5.181641,-6487.815,-12155.72,512
5.183594,-6481.842,-12177.75,512
5.185547,-6476.819,-12170.72,512
5.1875,-6481.931,-12151.56,512
5.189453,-6481.472,-12184.07,512
5.191406,-6482.566,-12191.35,512
5.193359,-6471.223,-12178.81,512
5.195312,-6479.283,-12185.65,512
5.197266,-6485.435,-12137.14,512
5.199219,-6491.021,-12139.87,512
5.201172,-6486.242,-12163.8,512
5.203125,-6502.859,-12147.13,512
5.205078,-6499.795,-12156.92,512
5.207031,-6493.819,-12164.76,512
5.208984,-6481.401,-12157.93,512
5.210938,-6483.942,-12156.41,512
5.212891,-6492.057,-12159.99,512
5.214844,-6477.322,-12153.27,512
5.216797,-6482.968,-12181.2,512
5.21875,-6476.742,-12195.33,512
5.220703,-6476.063,-12179.23,512
5.222656,-6488.287,-12173.14,512
5.224609,-6481.801,-12155.94,512
5.226562,-6486.513,-12167.98,512
5.228516,-6486.427,-12185.9,512
5.230469,-6478.383,-12174.71,512
5.232422,-6485.572,-12158.47,512
5.234375,-6493.968,-12166.45,512
5.236328,-6506.542,-12185.58,512
5.238281,-6508.434,-12147.28,512
5.240234,-6494.163,-12156.94,512
5.242188,-6486.399,-12168.63,512
5.244141,-6490.333,-12151.92,512
5.246094,-6501.691,-12153.52,512
5.248047,-6485.346,-12141.58,512
5.25,-6479.813,-12153.66,512
5.251953,-6477.147,-12161.02,512
5.253906,-6476.999,-12178.44,512
5.255859,-6482.86,-12189.14,512
5.257812,-6468.691,-12186.82,512
5.259766,-6471.887,-12198.52,512
5.261719,-6487.595,-12150.66,512
5.263672,-6496.828,-12114.77,512
5.265625,-6479.926,-12133.53,512
5.267578,-6485.396,-12145.17,512
5.269531,-6489.337,-12155.22,512
5.271484,-6477.687,-12153.74,512
5.273438,-6479.164,-12158.62,512
5.275391,-6484.487,-12164.16,512
5.277344,-6480.99,-12162.55,512
5.279297,-6486.767,-12163.46,512
5.28125,-6482.085,-12158.98,512
5.283203,-6476.366,-12165.42,512
5.285156,-6480.775,-12166.87,512
5.287109,-6490.221,-12174.91,512
5.289062,-6508.415,-12177.85,512
5.291016,-6481.253,-12178.96,512
5.292969,-6476.04,-12158.34,512
5.294922,-6486.525,-12135.33,512
5.296875,-6468.937,-12138.02,512
5.298828,-6484.295,-12151.1,512
5.300781,-6496.339,-12169.22,512
5.302734,-6510.785,-12183.38,512
5.304688,-6502.843,-12162.17,512
5.306641,-6483.64,-12168.49,512
5.308594,-6495.163,-12186.14,512
5.310547,-6489.549,-12190,512
5.3125,-6480.625,-12184.25,512
5.314453,-6479.468,-12171.54,512
5.316406,-6483.947,-12165.52,512
5.318359,-6487.541,-12184.49,512
5.320312,-6498.956,-12169.98,512
5.322266,-6493.958,-12180.88,512
5.324219,-6492.922,-12190.76,512
5.326172,-6478.569,-12153.38,512
5.328125,-6489.491,-12154.9,512
5.330078,-6493.91,-12136.54,512
5.332031,-6495.984,-12143.42,512
5.333984,-6499.345,-12156.85,512
5.335938,-6492.049,-12159.25,512
5.337891,-6491.665,-12158.83,512
5.339844,-6501.731,-12164.14,512
5.341797,-6505.264,-12173.52,512
5.34375,-6492.424,-12156.24,512
5.345703,-6503.895,-12165.88,512
5.347656,-6495.199,-12176.71,512
5.349609,-6484.086,-12178.7,512
5.351562,-6493.463,-12184,512
5.353516,-6491.047,-12180.83,512
5.355469,-6491.75,-12165.88,512
5.357422,-6489.333,-12161.36,512
5.359375,-6495.146,-12160.17,512
5.361328,-6499.522,-12136.5,512
5.363281,-6491.371,-12140.52,512
5.365234,-6473.466,-12142.38,512
5.367188,-6487.68,-12159.82,512
5.369141,-6481.869,-12155.85,512
5.371094,-6486.594,-12161.98,512
5.373047,-6493.679,-12166.2,512
5.375,-6487.107,-12151.01,512
5.376953,-6487.981,-12145.12,512
5.378906,-6490.758,-12167.78,512
5.380859,-6489.151,-12184.42,512
5.382812,-6490.093,-12168.11,512
5.384766,-6487.289,-12173.17,512
5.386719,-6495.927,-12187.43,512
5.388672,-6479.811,-12144.84,512
5.390625,-6480.767,-12141.53,512
5.392578,-6484.633,-12168.01,512
5.394531,-6487.515,-12167.17,512
5.396484,-6486.31,-12178.89,512
5.398438,-6483.897,-12150.38,512
5.400391,-6490.711,-12159.58,512
5.402344,-6470.583,-12164.69,512
5.404297,-6474.379,-12161.08,512
5.40625,-6480.594,-12182.76,512
5.408203,-6477.574,-12171.54,512
5.410156,-6484.549,-12159.18,512
5.412109,-6479.158,-12158.63,512
5.414062,-6470.757,-12179.5,512
5.416016,-6461.341,-12171.84,512
5.417969,-6469.882,-12161.19,512
5.419922,-6482.32,-12168.93,512
5.421875,-6474.034,-12185.56,512
5.423828,-6490.529,-12178.81,512
5.425781,-6491.937,-12160.05,512
5.427734,-6475.828,-12138.44,512
5.429688,-6494.789,-12160.37,512
5.431641,-6482.578,-12176.36,512
5.433594,-6476.296,-12155.94,512
5.435547,-6498.667,-12128.04,512
5.4375,-6488.767,-12130.41,512
5.439453,-6483.984,-12153.22,512
5.441406,-6487.688,-12162.65,512
5.443359,-6481.847,-12163.49,512
5.445312,-6494.771,-12176.21,512
5.447266,-6479.8,-12171.49,512
5.449219,-6475.845,-12175.33,512
5.451172,-6473.6,-12184.27,512
5.453125,-6465.758,-12161.78,512
5.455078,-6475.864,-12159.28,512
5.457031,-6484.677,-12162.84,512
5.458984,-6486.389,-12179.02,512
5.460938,-6473.534,-12161.2,512
5.462891,-6464.626,-12144.07,512
5.464844,-6467.769,-12152.59,512
5.466797,-6466.872,-12160.57,512
5.46875,-6481.558,-12174.73,512
5.470703,-6485.314,-12180.86,512
5.472656,-6478.171,-12193.63,512
5.474609,-6469.921,-12185.74,512
5.476562,-6478.732,-12179.07,512
5.478516,-6473.132,-12180.25,512
5.480469,-6469.616,-12171.12,512
5.482422,-6470.431,-12190.73,512
5.484375,-6479.281,-12196.84,512
5.486328,-6480.452,-12173.26,512
5.488281,-6469.528,-12201.29,512
5.490234,-6465.907,-12194.39,512
5.492188,-6472.094,-12195.79,512
5.494141,-6474.728,-12181.71,512
5.496094,-6487.557,-12158.05,512
5.498047,-6487.996,-12170.41,512
5.5,-6480.136,-12190.35,512
5.501953,-6478.12,-12181.21,512
5.503906,-6479.384,-12163.47,512
5.505859,-6491.279,-12176.54,512
5.507812,-6477.604,-12157.04,512
5.509766,-6491.193,-12129.81,512
5.511719,-6507.345,-12156.3,512
5.513672,-6512.319,-12169.08,512
5.515625,-6518.5,-12181.26,512
5.517578,-6509.556,-12178.41,512
5.519531,-6501.232,-12151.32,512
5.521484,-6513.141,-12148.84,512
5.523438,-6496.704,-12152.64,512
5.525391,-6495.901,-12157.47,512
5.527344,-6495.395,-12154.62,512
5.529297,-6493.895,-12145.07,512
5.53125,-6508.805,-12174.34,512
5.533203,-6502.764,-12160.58,512
5.535156,-6496.398,-12149,512
5.537109,-6498.079,-12156.69,512
5.539062,-6500.775,-12150.62,512
5.541016,-6493.821,-12158.26,512
5.542969,-6498.911,-12151.29,512
5.544922,-6498.696,-12148.37,512
5.546875,-6498.536,-12151.67,512
5.548828,-6510.153,-12151.95,512
5.550781,-6509.945,-12150.28,512
5.552734,-6501.54,-12156.29,512
5.554688,-6503.207,-12161.18,512
5.556641,-6495.363,-12156.76,512
5.558594,-6483.395,-12173.22,512
5.560547,-6470.758,-12198.46,512
5.5625,-6463.811,-12202.85,512
5.564453,-6473.692,-12184.95,512
5.566406,-6496.437,-12157.39,512
5.568359,-6505.373,-12143.72,512
5.570312,-6503.542,-12138.31,512
5.572266,-6481.215,-12123.42,512
5.574219,-6479.377,-12122.18,512
5.576172,-6482.514,-12140.63,512
5.578125,-6455.354,-12135.52,512
5.580078,-6469.666,-12154.15,512
5.582031,-6436.604,-12137.03,512
5.583984,-6442.359,-12129.2,512
5.585938,-6451.749,-12124.84,512
5.587891,-6419.356,-12145.12,512
5.589844,-6412.292,-12149.82,512
5.591797,-6412.8,-12176.02,512
5.59375,-6397.098,-12177.01,512
5.595703,-6389.071,-12173.77,512
5.597656,-6394.821,-12188.74,512
5.599609,-6379.372,-12213.12,512
5.601562,-6383.922,-12243.1,512
5.603516,-6395.823,-12251.38,512
5.605469,-6400.445,-12260.39,512
5.607422,-6434.011,-12270.28,512
5.609375,-6465.459,-12270.98,512
5.611328,-6466.556,-12242.27,512
5.613281,-6490.89,-12237.23,512
5.615234,-6481.187,-12240.43,512
5.617188,-6488.885,-12258.94,512
5.619141,-6501.001,-12258.46,512
5.621094,-6525.483,-12261.57,512
5.623047,-6535.397,-12252.2,512
5.625,-6563.368,-12228.4,512
5.626953,-6577.744,-12184.36,512
5.628906,-6614.253,-12155.72,512
5.630859,-6612.774,-12131.75,512
5.632812,-6603.069,-12143.8,512
5.634766,-6605.761,-12155.92,512
5.636719,-6588.848,-12162.17,512
5.638672,-6554.287,-12174.98,512
5.640625,-6525.255,-12172.07,512
5.642578,-6514.439,-12186.16,512
5.644531,-6495.143,-12168.59,512
5.646484,-6489.24,-12176.89,512
5.648438,-6484.937,-12157.92,512
5.650391,-6478.163,-12172.09,512
5.652344,-6492.154,-12189.31,512
5.654297,-6459.665,-12162.47,512
5.65625,-6462.234,-12176.37,512
5.658203,-6467.925,-12160.45,512
5.660156,-6467.775,-12157.62,512
5.662109,-6471.719,-12164.61,512
5.664062,-6462.333,-12149.04,512
5.666016,-6471.321,-12127.77,512
5.667969,-6466.154,-12125.79,512
5.669922,-6470.278,-12138.55,512
5.671875,-6464.831,-12141.24,512
5.673828,-6456.796,-12156.36,512
5.675781,-6463.185,-12150.88,512
5.677734,-6464.689,-12140.99,512
5.679688,-6456.398,-12158.91,512
5.681641,-6466.255,-12163.7,512
5.683594,-6454.071,-12142.19,512
5.685547,-6451.413,-12152.36,512
5.6875,-6445.841,-12147.09,512
5.689453,-6443.144,-12144.38,512
5.691406,-6441.253,-12146.41,512
5.693359,-6449.263,-12144.2,512
5.695312,-6465.171,-12157.28,512
5.697266,-6452.603,-12153.05,512
5.699219,-6460.481,-12148.15,512
5.701172,-6468.302,-12142.46,512
5.703125,-6459.756,-12146.77,512
5.705078,-6459.701,-12166.61,512
5.707031,-6468.603,-12189.15,512
5.708984,-6467.695,-12173.49,512
5.710938,-6457.938,-12166.4,512
5.712891,-6457.562,-12181.33,512
5.714844,-6460.847,-12163.65,512
5.716797,-6457.624,-12144.62,512
5.71875,-6445.555,-12121.37,512
5.720703,-6444.429,-12129.17,512
5.722656,-6458.406,-12147.88,512
5.724609,-6461.476,-12170.79,512
5.726562,-6452.775,-12155.7,512
5.728516,-6447.665,-12143.83,512
5.730469,-6446.119,-12148.43,512
5.732422,-6440.774,-12135.36,512
5.734375,-6450.784,-12148.57,512
5.736328,-6448.181,-12157.1,512
5.738281,-6445.469,-12158.33,512
5.740234,-6453.513,-12158.07,512
5.742188,-6438.637,-12143.35,512
5.744141,-6440.042,-12138.19,512
5.746094,-6451.097,-12164.66,512
5.748047,-6427.618,-12155.65,512
5.75,-6423.043,-12153.52,512
5.751953,-6429.379,-12167.82,512
5.753906,-6440.517,-12169.85,512
5.755859,-6437.228,-12163.12,512
5.757812,-6428.904,-12149.68,512
5.759766,-6429.361,-12153.23,512
5.761719,-6429.276,-12150.32,512
5.763672,-6426.099,-12158.03,512
5.765625,-6419.526,-12162.78,512
5.767578,-6407.531,-12149.78,512
5.769531,-6416.28,-12156.13,512
5.771484,-6414.973,-12173.77,512
5.773438,-6410.042,-12173.38,512
5.775391,-6402.454,-12169.3,512
5.777344,-6397.536,-12176.85,512
5.779297,-6395.859,-12182.6,512
5.78125,-6379.382,-12174.04,512
5.783203,-6372.938,-12180.81,512
5.785156,-6366.589,-12143.59,512
5.787109,-6370.601,-12155.3,512
5.789062,-6389.728,-12146.48,512
5.791016,-6376.942,-12115.03,512
5.792969,-6370.095,-12125.72,512
5.794922,-6382.04,-12136.97,512
5.796875,-6378.939,-12136.93,512
5.798828,-6363.308,-12133.4,512
5.800781,-6367.071,-12145.08,512
5.802734,-6352.645,-12136.5,512
5.804688,-6365.407,-12178.86,512
5.806641,-6354.014,-12180.47,512
5.808594,-6360.867,-12163.62,512
5.810547,-6360.922,-12174.52,512
5.8125,-6346.06,-12162.65,512
5.814453,-6348.589,-12170.87,512
5.816406,-6338.323,-12171.13,512
5.818359,-6352.107,-12180.18,512
5.820312,-6354.638,-12191.85,512
5.822266,-6357.855,-12204.79,512
5.824219,-6353.006,-12181.45,512
5.826172,-6340.869,-12181.08,512
5.828125,-6327.582,-12163.75,512
5.830078,-6333.244,-12166.89,512
5.832031,-6338.779,-12163.06,512
5.833984,-6345.052,-12173.78,512
5.835938,-6343.094,-12193.48,512
5.837891,-6339.19,-12176.75,512
5.839844,-6332.81,-12177.81,512
5.841797,-6331.835,-12170.74,512
5.84375,-6341.085,-12171.3,512
5.845703,-6345.468,-12186.46,512
5.847656,-6338.613,-12185.13,512
5.849609,-6333.423,-12183.44,512
5.851562,-6350.455,-12199.21,512
5.853516,-6331.949,-12178.12,512
5.855469,-6348.743,-12187.63,512
5.857422,-6355.58,-12193.48,512
5.859375,-6372.42,-12157.47,512
5.861328,-6391.824,-12146.19,512
5.863281,-6389.423,-12149.37,512
5.865234,-6386.416,-12150.11,512
5.867188,-6381.296,-12157.64,512
5.869141,-6391.445,-12174.78,512
5.871094,-6408.54,-12177,512
5.873047,-6405.701,-12136.61,512
5.875,-6418.39,-12129.11,512
5.876953,-6428.46,-12123.09,512
5.878906,-6429.89,-12123.8,512
5.880859,-6423.448,-12128.72,512
5.882812,-6435.841,-12140.66,512
5.884766,-6434.186,-12153.11,512
5.886719,-6437.786,-12153.75,512
5.888672,-6456.357,-12167.64,512
5.890625,-6469.979,-12195.13,512
5.892578,-6451.406,-12154.44,512
5.894531,-6471.888,-12108.38,512
5.896484,-6476.191,-12096.63,512
5.898438,-6460.015,-12117.99,512
5.900391,-6463.396,-12139.86,512
5.902344,-6473.267,-12147.47,512
5.904297,-6476.48,-12137.29,512
5.90625,-6490.042,-12155.01,512
5.908203,-6480.104,-12156.7,512
5.910156,-6459.907,-12137.33,512
5.912109,-6462.665,-12149.65,512
5.914062,-6467.746,-12160.76,512
5.916016,-6468.317,-12155.09,512
5.917969,-6467.286,-12161.11,512
5.919922,-6480.301,-12156.86,512
5.921875,-6478.866,-12134.98,512
5.923828,-6498.627,-12160.07,512
5.925781,-6491.608,-12146.63,512
5.927734,-6485.01,-12147.63,512
5.929688,-6487.456,-12156.49,512
5.931641,-6493.254,-12162.58,512
5.933594,-6485.89,-12149.86,512
5.935547,-6483.02,-12163.7,512
5.9375,-6498.153,-12209.32,512
5.939453,-6489.395,-12190.32,512
5.941406,-6490.783,-12182.43,512
5.943359,-6496.52,-12169.64,512
5.945312,-6504.307,-12145.93,512
5.947266,-6496.282,-12127.76,512
5.949219,-6489.52,-12128.6,512
5.951172,-6488.909,-12132.81,512
5.953125,-6483.27,-12130.09,512
5.955078,-6479.218,-12131.65,512
5.957031,-6474.287,-12127.77,512
5.958984,-6481.075,-12139.71,512
5.960938,-6479.11,-12124.32,512
5.962891,-6478.807,-12120.42,512
5.964844,-6488.589,-12156.05,512
5.966797,-6487.864,-12169.11,512
5.96875,-6476.288,-12172.71,512
5.970703,-6483.504,-12195.58,512
5.972656,-6479.308,-12177.65,512
5.974609,-6471.536,-12146.35,512
5.976562,-6478.968,-12117.93,512
5.978516,-6492.255,-12125.39,512
5.980469,-6470.382,-12112.02,512
5.982422,-6467.78,-12109.09,512
5.984375,-6478.335,-12135.24,512
5.986328,-6471.092,-12140.95,512
5.988281,-6485.781,-12129.23,512
5.990234,-6489.119,-12143.28,512
5.992188,-6490.099,-12140.87,512
5.994141,-6478.739,-12123.83,512
5.996094,-6482.359,-12132.44,512
5.998047,-6469.58,-12136.02,512
6,-6471.928,-12146.05,512
6.001953,-6487.116,-12170.41,512
6.003906,-6492.135,-12179.16,512
6.005859,-6486.564,-12170.64,512
6.007812,-6490.566,-12155.3,512
6.009766,-6488.805,-12165.22,512
6.011719,-6496.019,-12168.85,512
6.013672,-6474.65,-12140.46,512
6.015625,-6469.531,-12164.6,512
6.017578,-6464.125,-12155.97,512
6.019531,-6480.442,-12147.49,512
6.021484,-6490.057,-12163.3,512
6.023438,-6492.54,-12164.24,512
6.025391,-6478.245,-12140.48,512
6.027344,-6489.262,-12125.59,512
6.029297,-6508.587,-12148.35,512
6.03125,-6492.207,-12139.16,512
6.033203,-6509.32,-12162.42,512
6.035156,-6491.348,-12162.14,512
6.037109,-6498.61,-12165.4,512
6.039062,-6497.326,-12162.07,512
6.041016,-6489.154,-12159.55,512
6.042969,-6491.854,-12165.59,512
6.044922,-6491.489,-12154.33,512
6.046875,-6485.301,-12155.44,512
6.048828,-6502.826,-12176.27,512
6.050781,-6508.93,-12174.17,512
6.052734,-6511.895,-12176.81,512
6.054688,-6499.876,-12163.35,512
6.056641,-6507.343,-12165.43,512
6.058594,-6497.264,-12156.19,512
6.060547,-6506.394,-12166.87,512
6.0625,-6503.625,-12165.16,512
6.064453,-6498.153,-12152.44,512
6.066406,-6497.03,-12155.21,512
6.068359,-6498.47,-12159.9,512
6.070312,-6504.761,-12165.02,512
6.072266,-6512.468,-12174.79,512
6.074219,-6509.511,-12173.65,512
6.076172,-6504.824,-12169.41,512
6.078125,-6496.692,-12165.69,512
6.080078,-6508.986,-12175.17,512
6.082031,-6511.074,-12156.33,512
6.083984,-6516.185,-12165.99,512
6.085938,-6529.878,-12184.67,512
6.087891,-6521.213,-12172.87,512
6.089844,-6520.293,-12181.71,512
6.091797,-6511.948,-12171.87,512
6.09375,-6521.409,-12178.79,512
6.095703,-6522.346,-12183.92,512
6.097656,-6510.415,-12179.78,512
6.099609,-6523.189,-12171.9,512
6.101562,-6520.481,-12166.42,512
6.103516,-6529.433,-12185.89,512
6.105469,-6526.443,-12196.51,512
6.107422,-6523.352,-12184.34,512
6.109375,-6524.583,-12172.04,512
6.111328,-6529.44,-12189.67,512
6.113281,-6531.484,-12216.66,512
6.115234,-6511.382,-12206.62,512
6.117188,-6522.437,-12201.97,512
6.119141,-6539.766,-12211.46,512
6.121094,-6538.137,-12151.96,512
6.123047,-6539.381,-12136.29,512
6.125,-6539.915,-12155.84,512
6.126953,-6534.547,-12152.93,512
6.128906,-6537.537,-12160.44,512
6.130859,-6542.019,-12179.63,512
6.132812,-6540.208,-12187.15,512
6.134766,-6527.493,-12182.49,512
6.136719,-6523.843,-12183.18,512
6.138672,-6536.527,-12206.67,512
6.140625,-6519.957,-12202.71,512
6.142578,-6523.21,-12202.22,512
6.144531,-6520.021,-12177.6,512
6.146484,-6540.157,-12177.94,512
6.148438,-6544.779,-12185.83,512
6.150391,-6540.522,-12196,512
6.152344,-6546.17,-12185.95,512
6.154297,-6542.222,-12187.07,512
6.15625,-6535.32,-12193.98,512
6.158203,-6528.511,-12193,512
6.160156,-6542.826,-12191.43,512
6.162109,-6531.188,-12188.47,512
6.164062,-6517.66,-12212.48,512
6.166016,-6509.482,-12221.81,512
6.167969,-6500.919,-12226.71,512
6.169922,-6499.761,-12215.7,512
6.171875,-6496.562,-12200.55,512
6.173828,-6498.727,-12203.55,512
6.175781,-6496.752,-12167.77,512
6.177734,-6503.667,-12148.63,512
6.179688,-6521.62,-12156.66,512
6.181641,-6512.088,-12167.11,512
6.183594,-6511.521,-12188.85,512
6.185547,-6513.361,-12180.19,512
6.1875,-6512.704,-12162.44,512
6.189453,-6507.433,-12151.18,512
6.191406,-6517.898,-12169.58,512
6.193359,-6521.958,-12199.75,512
6.195312,-6516.952,-12193.37,512
6.197266,-6506.775,-12175.49,512
6.199219,-6517.616,-12147.15,512
6.201172,-6518.902,-12140.41,512
6.203125,-6518.685,-12153.14,512
6.205078,-6515.051,-12139.29,512
6.207031,-6515.445,-12150.28,512
6.208984,-6512.132,-12166.94,512
6.210938,-6516.905,-12165.39,512
6.212891,-6515.563,-12159.31,512
6.214844,-6513.147,-12188.15,512
6.216797,-6507.929,-12172.79,512
6.21875,-6498.688,-12160.18,512
6.220703,-6521.56,-12173.51,512
6.222656,-6512.397,-12163.34,512
6.224609,-6511.537,-12172.81,512
6.226562,-6513.18,-12161.72,512
6.228516,-6499.245,-12149.82,512
6.230469,-6513.582,-12170.92,512
6.232422,-6504.716,-12158.07,512
6.234375,-6511.713,-12180.49,512
6.236328,-6504.754,-12164.34,512
6.238281,-6512.081,-12168.4,512
6.240234,-6517.853,-12178.9,512
6.242188,-6517.457,-12173.11,512
6.244141,-6513.231,-12177.64,512
6.246094,-6506.808,-12180.26,512
6.248047,-6511.913,-12191.88,512
6.25,-6510.077,-12166.31,512
6.251953,-6509.733,-12180.75,512
6.253906,-6519.278,-12216.31,512
6.255859,-6514.969,-12241.58,512
6.257812,-6490.518,-12238.62,512
6.259766,-6492.803,-12221.96,512
6.261719,-6503.712,-12174.95,512
6.263672,-6527.434,-12154.2,512
6.265625,-6524.202,-12158.71,512
6.267578,-6507.242,-12122.11,512
6.269531,-6527.014,-12155.78,512
6.271484,-6525.848,-12168.92,512
6.273438,-6505.09,-12161.74,512
6.275391,-6501.924,-12176.17,512
6.277344,-6518.613,-12180.6,512
6.279297,-6506.339,-12162.98,512
6.28125,-6499.309,-12152.39,512
6.283203,-6504.621,-12161.11,512
6.285156,-6533.047,-12164.45,512
6.287109,-6532.627,-12199.47,512
6.289062,-6507.475,-12186.22,512
6.291016,-6505.156,-12166.42,512
6.292969,-6516.669,-12186.19,512
6.294922,-6518.803,-12172.93,512
6.296875,-6494.048,-12159.62,512
6.298828,-6502.144,-12172.68,512
6.300781,-6502.811,-12164.93,512
6.302734,-6489.312,-12187.79,512
6.304688,-6488.12,-12184.71,512
6.306641,-6486.786,-12185.89,512
6.308594,-6488.897,-12202.64,512
6.310547,-6488.738,-12168.51,512
6.3125,-6504.415,-12166.82,512
6.314453,-6511.456,-12169.34,512
6.316406,-6502.743,-12158.78,512
6.318359,-6498.329,-12171.27,512
6.320312,-6489.18,-12171.05,512
6.322266,-6476.398,-12181.89,512
6.324219,-6465.427,-12185.25,512
6.326172,-6475.813,-12176.69,512
6.328125,-6465.095,-12170.26,512
6.330078,-6468.123,-12182.07,512
6.332031,-6464.173,-12179.98,512
6.333984,-6451.905,-12171.51,512
6.335938,-6461.459,-12178.9,512
6.337891,-6469.885,-12182.52,512
6.339844,-6475.24,-12181.78,512
6.341797,-6486.113,-12186.55,512
6.34375,-6470.718,-12167.69,512
6.345703,-6475.85,-12172.69,512
6.347656,-6492.462,-12202.79,512
6.349609,-6486.827,-12187.53,512
6.351562,-6471.623,-12186.34,512
6.353516,-6479.27,-12191.81,512
6.355469,-6483.761,-12165.91,512
6.357422,-6484.919,-12164.25,512
6.359375,-6484.028,-12183.24,512
6.361328,-6478.178,-12196.08,512
6.363281,-6478.966,-12215.86,512
6.365234,-6473.195,-12180.9,512
6.367188,-6499.399,-12185.1,512
6.369141,-6499.79,-12192.05,512
6.371094,-6506.625,-12167.58,512
6.373047,-6519.152,-12172.72,512
6.375,-6502.7,-12183.28,512
6.376953,-6499.608,-12178.99,512
6.378906,-6505.403,-12161.31,512
6.380859,-6525.638,-12132.15,512
6.382812,-6508.449,-12139.74,512
6.384766,-6497.405,-12135.46,512
6.386719,-6504.201,-12149.06,512
6.388672,-6509.889,-12168.57,512
6.390625,-6511.481,-12178.77,512
6.392578,-6502.093,-12173.64,512
6.394531,-6498.939,-12174.12,512
6.396484,-6513.177,-12192.46,512
6.398438,-6502.505,-12165.05,512
6.400391,-6495.74,-12162.03,512
6.402344,-6493.803,-12183.24,512
6.404297,-6498.701,-12194.1,512
6.40625,-6501.824,-12188.65,512
6.408203,-6508.567,-12175.99,512
6.410156,-6496.768,-12134.66,512
6.412109,-6503.485,-12133.01,512
6.414062,-6502.891,-12133.23,512
6.416016,-6489.174,-12128.62,512
6.417969,-6502.081,-12147.31,512
6.419922,-6506.78,-12148.11,512
6.421875,-6493.984,-12144.68,512
6.423828,-6490.083,-12138.13,512
6.425781,-6502.108,-12141.56,512
6.427734,-6503.609,-12146.47,512
6.429688,-6507.54,-12150.36,512
6.431641,-6506.534,-12156,512
6.433594,-6501.7,-12156.86,512
6.435547,-6490.121,-12154.49,512
6.4375,-6485.799,-12154.77,512
6.439453,-6483.707,-12150.89,512
6.441406,-6466.036,-12154.4,512
6.443359,-6458.333,-12172.72,512
6.445312,-6455.799,-12181.48,512
6.447266,-6416.64,-12170.35,512
6.449219,-6397.331,-12149.29,512
6.451172,-6379.058,-12161.24,512
6.453125,-6379.051,-12202.5,512
6.455078,-6383.521,-12188.04,512
6.457031,-6375.326,-12213.46,512
6.458984,-6387.608,-12251.91,512
6.460938,-6381.944,-12280.41,512
6.462891,-6384.807,-12289.32,512
6.464844,-6389.783,-12257.84,512
6.466797,-6435.693,-12254.72,512
6.46875,-6483.723,-12242.19,512
6.470703,-6480.776,-12222.8,512
6.472656,-6490.417,-12209.21,512
6.474609,-6490.412,-12159.05,512
6.476562,-6525.851,-12161.45,512
6.478516,-6529.848,-12177.8,512
6.480469,-6532.091,-12187.19,512
6.482422,-6548.494,-12178.79,512
6.484375,-6582.722,-12148.58,512
6.486328,-6616.341,-12137.66,512
6.488281,-6620.458,-12130.46,512
6.490234,-6604.664,-12121.25,512
6.492188,-6586.385,-12114.11,512
6.494141,-6583.692,-12109.28,512
6.496094,-6572.801,-12128.06,512
6.498047,-6567.466,-12140.78,512
6.5,-6550.047,-12147.09,512
6.501953,-6522.36,-12143.4,512
6.503906,-6512.13,-12147.44,512
6.505859,-6507.791,-12155.52,512
6.507812,-6503.387,-12152.87,512
6.509766,-6484.279,-12137.93,512
6.511719,-6480.158,-12127.94,512
6.513672,-6478.687,-12135.51,512
6.515625,-6481.048,-12143.64,512
6.517578,-6491.445,-12156.46,512
6.519531,-6489.786,-12171.69,512
6.521484,-6487.686,-12156.37,512
6.523438,-6489.161,-12160.74,512
6.525391,-6482.513,-12155.06,512
6.527344,-6473.1,-12145.02,512
6.529297,-6482.303,-12159.62,512
6.53125,-6475.998,-12168.02,512
6.533203,-6470.769,-12181.92,512
6.535156,-6477.419,-12213.01,512
6.537109,-6460.749,-12194.68,512
6.539062,-6485.241,-12210.33,512
6.541016,-6486.902,-12172.06,512
6.542969,-6479.167,-12158.77,512
6.544922,-6475.095,-12175.33,512
6.546875,-6473.802,-12173.04,512
6.548828,-6490.357,-12168.55,512
6.550781,-6483.271,-12147.24,512
6.552734,-6480.144,-12104.19,512
6.554688,-6494.875,-12117.69,512
6.556641,-6486.153,-12144.02,512
6.558594,-6488.068,-12162.28,512
6.560547,-6496.062,-12165.02,512
6.5625,-6482.862,-12143.04,512
6.564453,-6490.918,-12147.45,512
6.566406,-6492.442,-12154.59,512
6.568359,-6488.495,-12162.31,512
6.570312,-6495.199,-12185.24,512
6.572266,-6492.969,-12185.8,512
6.574219,-6486.687,-12179.26,512
6.576172,-6472.375,-12174.17,512
6.578125,-6484.789,-12155.95,512
6.580078,-6477.691,-12141.48,512
6.582031,-6465.282,-12154.96,512
6.583984,-6463.827,-12178.51,512
6.585938,-6459.494,-12172.94,512
6.587891,-6470.165,-12171.77,512
6.589844,-6474.822,-12152.52,512
6.591797,-6467.249,-12149.02,512
6.59375,-6467.961,-12162.64,512
6.595703,-6446.449,-12138.88,512
6.597656,-6448.617,-12141.62,512
6.599609,-6440.692,-12144.09,512
6.601562,-6462.72,-12155.9,512
6.603516,-6465.041,-12164.6,512
6.605469,-6445.7,-12150.57,512
6.607422,-6445.593,-12154.81,512
6.609375,-6446.65,-12166.92,512
6.611328,-6449.132,-12167.85,512
6.613281,-6443.257,-12159.38,512
6.615234,-6446.017,-12158.83,512
6.617188,-6435.854,-12158.04,512
6.619141,-6435.334,-12181.33,512
6.621094,-6426.277,-12222.87,512
6.623047,-6408.722,-12228.65,512
6.625,-6406.763,-12212.1,512
6.626953,-6411.748,-12218.28,512
6.628906,-6423.003,-12169.02,512
6.630859,-6426.633,-12132.01,512
6.632812,-6436.068,-12133.82,512
6.634766,-6430.508,-12153.59,512
6.636719,-6411.951,-12167.97,512
6.638672,-6431.537,-12180.46,512
6.640625,-6428.307,-12181.79,512
6.642578,-6411.946,-12180.07,512
6.644531,-6417.843,-12168.49,512
6.646484,-6410.596,-12148.88,512
6.648438,-6402.698,-12142.93,512
6.650391,-6409.609,-12180.36,512
6.652344,-6397.045,-12180.15,512
6.654297,-6391.66,-12189.12,512
6.65625,-6386.702,-12190.59,512
6.658203,-6389.503,-12189.52,512
6.660156,-6381.098,-12175.27,512
6.662109,-6382.206,-12162.1,512
6.664062,-6387.157,-12175.81,512
6.666016,-6386.892,-12184.05,512
6.667969,-6371.328,-12174.69,512
6.669922,-6370.126,-12187.54,512
6.671875,-6370.052,-12202.2,512
6.673828,-6362.281,-12195.97,512
6.675781,-6354.483,-12191.07,512
6.677734,-6359.997,-12194.64,512
6.679688,-6363.696,-12196.24,512
6.681641,-6352.294,-12185.25,512
6.683594,-6356.402,-12208.7,512
6.685547,-6348.029,-12198.34,512
6.6875,-6347.161,-12220.64,512
6.689453,-6339.876,-12220.62,512
6.691406,-6336.117,-12219.76,512
6.693359,-6343.64,-12199.83,512
6.695312,-6345.496,-12174.47,512
6.697266,-6343.235,-12190.75,512
6.699219,-6356.499,-12189.53,512
6.701172,-6347.624,-12184.85,512
6.703125,-6336.674,-12193.17,512
6.705078,-6351.287,-12189.09,512
6.707031,-6356.596,-12190.37,512
6.708984,-6364.791,-12209.52,512
6.710938,-6361.024,-12205.2,512
6.712891,-6347.993,-12208.8,512
6.714844,-6347.672,-12209.39,512
6.716797,-6362.955,-12217.21,512
6.71875,-6406.354,-12183.41,512
6.720703,-6423.878,-12190.86,512
6.722656,-6417.582,-12192.16,512
6.724609,-6415.3,-12172.33,512
6.726562,-6435.774,-12188.32,512
6.728516,-6417.207,-12169.92,512
6.730469,-6422.592,-12147.45,512
6.732422,-6455.906,-12161.78,512
6.734375,-6455.329,-12178.67,512
6.736328,-6452.433,-12175.62,512
6.738281,-6470.357,-12163.76,512
6.740234,-6466.716,-12159.17,512
6.742188,-6458.226,-12153.04,512
6.744141,-6471.027,-12150.75,512
6.746094,-6474.636,-12157.32,512
6.748047,-6461.504,-12148.11,512
6.75,-6475.675,-12162.22,512
6.751953,-6484.309,-12173.69,512
6.753906,-6495.699,-12175.95,512
6.755859,-6488.272,-12181.66,512
6.757812,-6477.387,-12168.07,512
6.759766,-6490.024,-12164.99,512
6.761719,-6490.428,-12164.92,512
6.763672,-6494.525,-12167.64,512
6.765625,-6492.607,-12171.75,512
6.767578,-6498.072,-12180.96,512
6.769531,-6495.355,-12164.49,512
6.771484,-6490.883,-12167.37,512
6.773438,-6473.643,-12149.36,512
6.775391,-6490.011,-12156.33,512
6.777344,-6495.796,-12156.53,512
6.779297,-6498.389,-12158.23,512
6.78125,-6502.127,-12167.87,512
6.783203,-6497.838,-12180.73,512
6.785156,-6490.569,-12193.99,512
6.787109,-6482.427,-12200.19,512
6.789062,-6475.252,-12196.03,512
6.791016,-6486.932,-12178.76,512
6.792969,-6502.643,-12166.19,512
6.794922,-6493.974,-12140.65,512
6.796875,-6493.818,-12155.03,512
6.798828,-6488.138,-12185.09,512
6.800781,-6483.373,-12144.84,512
6.802734,-6490.362,-12133.3,512
6.804688,-6502.337,-12127.87,512
6.806641,-6490.035,-12116.5,512
6.808594,-6479.324,-12129.47,512
6.810547,-6495.301,-12140.52,512
6.8125,-6490.081,-12138.93,512
6.814453,-6490.675,-12139.79,512
6.816406,-6492.497,-12130.8,512
6.818359,-6485.709,-12135.48,512
6.820312,-6479.476,-12135.25,512
6.822266,-6485.526,-12145.47,512
6.824219,-6490.576,-12157.3,512
6.826172,-6482.855,-12152.76,512
6.828125,-6483.825,-12150.07,512
6.830078,-6489.772,-12144,512
6.832031,-6484.139,-12135.7,512
6.833984,-6482.308,-12142.49,512
6.835938,-6488.76,-12158.49,512
6.837891,-6495.295,-12157.75,512
6.839844,-6491.278,-12150.48,512
6.841797,-6504.069,-12172.32,512
6.84375,-6492.618,-12167.67,512
6.845703,-6494.479,-12176.07,512
6.847656,-6492.767,-12161.02,512
6.849609,-6500.535,-12163.86,512
6.851562,-6495.533,-12165.82,512
6.853516,-6495.678,-12168.5,512
6.855469,-6504.413,-12189.29,512
6.857422,-6504.365,-12176.72,512
6.859375,-6500.423,-12172.16,512
6.861328,-6511.429,-12157.02,512
6.863281,-6507.498,-12140.35,512
6.865234,-6495.214,-12151.98,512
6.867188,-6493.801,-12174.53,512
6.869141,-6505.306,-12180.61,512
6.871094,-6520.848,-12177.03,512
6.873047,-6531.649,-12178.21,512
6.875,-6505.602,-12180.04,512
6.876953,-6492.711,-12197.2,512
6.878906,-6492.473,-12226.49,512
6.880859,-6491.114,-12213.07,512
6.882812,-6503.143,-12171.6,512
6.884766,-6513.673,-12151.31,512
6.886719,-6514.698,-12158.94,512
6.888672,-6498.419,-12157.46,512
6.890625,-6501.872,-12163,512
6.892578,-6510.617,-12143.74,512
6.894531,-6508.889,-12139.52,512
6.896484,-6509.918,-12142.99,512
6.898438,-6515.896,-12158.53,512
6.900391,-6498.885,-12158.81,512
6.902344,-6479.772,-12153.47,512
6.904297,-6494.52,-12168.02,512
6.90625,-6499.382,-12166.68,512
6.908203,-6506.845,-12153.39,512
6.910156,-6503.303,-12144.2,512
6.912109,-6491.118,-12130.59,512
6.914062,-6499.799,-12147.75,512
6.916016,-6493.489,-12154.46,512
6.917969,-6496.225,-12151.85,512
6.919922,-6507.894,-12155.49,512
6.921875,-6498.246,-12153.08,512
6.923828,-6494.618,-12149.08,512
6.925781,-6504.746,-12164.56,512
6.927734,-6499.831,-12160.57,512
6.929688,-6498.306,-12155.89,512
6.931641,-6501.779,-12161.64,512
6.933594,-6504.999,-12162.03,512
6.935547,-6509.476,-12180.17,512
6.9375,-6500.811,-12183.87,512
6.939453,-6503.893,-12176.38,512
6.941406,-6501.778,-12160.58,512
6.943359,-6499.772,-12142.12,512
6.945312,-6515.489,-12162.28,512
6.947266,-6508.948,-12158.44,512
6.949219,-6494.049,-12146.86,512
6.951172,-6507.648,-12166.34,512
6.953125,-6511.616,-12173.83,512
6.955078,-6516.241,-12180.45,512
6.957031,-6523.737,-12185.29,512
6.958984,-6504.834,-12169.31,512
6.960938,-6501.192,-12161.02,512
6.962891,-6510.632,-12187.47,512
6.964844,-6498.332,-12221.36,512
6.966797,-6487.937,-12256.06,512
6.96875,-6483.326,-12273.07,512
6.970703,-6479.78,-12224.59,512
6.972656,-6516.015,-12130.83,512
6.974609,-6511.903,-12105.65,512
6.976562,-6515.654,-12112.19,512
6.978516,-6518.542,-12127.22,512
6.980469,-6511.841,-12140.59,512
6.982422,-6509.426,-12145.11,512
6.984375,-6517.609,-12149.7,512
6.986328,-6515.049,-12156.6,512
6.988281,-6511.351,-12152.41,512
6.990234,-6511.39,-12175.73,512
6.992188,-6501.947,-12185.49,512
6.994141,-6493.717,-12181.74,512
6.996094,-6510.505,-12177.14,512
6.998047,-6516.776,-12143.68,512
7,-6514.781,-12138.54,512
7.001953,-6517.871,-12152.42,512
7.003906,-6503.275,-12149.68,512
7.005859,-6491.457,-12139.62,512
7.007812,-6507.534,-12148.64,512
7.009766,-6501.686,-12155.98,512
7.011719,-6505.184,-12161.44,512
7.013672,-6510.783,-12155.11,512
7.015625,-6501.976,-12159.58,512
7.017578,-6508.161,-12178.7,512
7.019531,-6512.56,-12176.92,512
7.021484,-6507.579,-12162.31,512
7.023438,-6513.06,-12149.54,512
7.025391,-6514.509,-12152.06,512
7.027344,-6511.904,-12142.47,512
7.029297,-6496.062,-12145.12,512
7.03125,-6502.009,-12150.07,512
7.033203,-6514.213,-12156.47,512
7.035156,-6507.871,-12157.48,512
7.037109,-6519.435,-12167.63,512
7.039062,-6519.012,-12165.34,512
7.041016,-6505.911,-12156.87,512
7.042969,-6512.993,-12158.54,512
7.044922,-6510.325,-12158.81,512
7.046875,-6510.085,-12164.81,512
7.048828,-6508.795,-12171.95,512
7.050781,-6511.245,-12183.81,512
7.052734,-6510.918,-12200.37,512
7.054688,-6513.398,-12204.91,512
7.056641,-6507.223,-12197.9,512
7.058594,-6504.371,-12190.99,512
7.060547,-6505.027,-12171.36,512
7.0625,-6500.286,-12187.31,512
7.064453,-6517.883,-12181.1,512
7.066406,-6522.832,-12137.98,512
7.068359,-6519.952,-12157.73,512
7.070312,-6511.289,-12153.17,512
7.072266,-6514.538,-12153.25,512
7.074219,-6519.495,-12167.53,512
7.076172,-6506.682,-12165.82,512
7.078125,-6511.437,-12160.93,512
7.080078,-6514.839,-12175.58,512
7.082031,-6507.656,-12192.3,512
7.083984,-6511.09,-12179.01,512
7.085938,-6508.37,-12180.51,512
7.087891,-6509.809,-12165.59,512
7.089844,-6516.136,-12153.41,512
7.091797,-6510.281,-12134.28,512
7.09375,-6509.775,-12151.21,512
7.095703,-6517.093,-12152.89,512
7.097656,-6511.857,-12156.7,512
7.099609,-6503.697,-12144.98,512
7.101562,-6508.613,-12156.65,512
7.103516,-6507.348,-12164.06,512
7.105469,-6508.76,-12165.82,512
7.107422,-6496.548,-12166.54,512
7.109375,-6500.456,-12154.88,512
7.111328,-6508.931,-12154.93,512
7.113281,-6493.23,-12151.74,512
7.115234,-6487.377,-12154.59,512
7.117188,-6499.861,-12170.52,512
7.119141,-6491.743,-12160.47,512
7.121094,-6498.196,-12164.46,512
7.123047,-6506.654,-12181.62,512
7.125,-6494.835,-12176.46,512
7.126953,-6493.248,-12171.26,512
7.128906,-6502.119,-12182.9,512
7.130859,-6484.785,-12174.08,512
7.132812,-6465.902,-12182.54,512
7.134766,-6472.378,-12202.17,512
7.136719,-6477.644,-12218.5,512
7.138672,-6480.745,-12210.6,512
7.140625,-6475.726,-12216.38,512
7.142578,-6483.688,-12192.75,512
