timestamp,exg1,exg2,srate
0,-5695.366,-10892.87,512
0.001953125,-5697.404,-10888.43,512
0.00390625,-5686.715,-10853.32,512
0.005859375,-5690.231,-10821.97,512
0.0078125,-5700.916,-10805.44,512
0.009765625,-5691.659,-10812.4,512
0.01171875,-5694.533,-10821.32,512
0.01367188,-5672.546,-10820.71,512
0.015625,-5655.242,-10834.04,512
0.01757812,-5625.494,-10836.12,512
0.01953125,-5617.173,-10872.81,512
0.02148438,-5599.599,-10873.87,512
0.0234375,-5588.771,-10856.18,512
0.02539062,-5572.497,-10871.43,512
0.02734375,-5575.399,-10893.61,512
0.02929688,-5587.952,-10944.06,512
0.03125,-5587.959,-10944.38,512
0.03320312,-5570.632,-10927.9,512
0.03515625,-5579.562,-10925.38,512
0.03710938,-5626.144,-10938.83,512
0.0390625,-5650.331,-10905,512
0.04101562,-5681.187,-10912.79,512
0.04296875,-5689.286,-10931.33,512
0.04492188,-5690.328,-10926.56,512
0.046875,-5706.863,-10937.3,512
0.04882812,-5714.177,-10924.96,512
0.05078125,-5720.906,-10914.83,512
0.05273438,-5751.818,-10918.58,512
0.0546875,-5774.675,-10905.07,512
0.05664062,-5803.058,-10876.08,512
0.05859375,-5811.306,-10857.2,512
0.06054688,-5809.165,-10830.55,512
0.0625,-5796.523,-10812.27,512
0.06445312,-5787.547,-10841.07,512
0.06640625,-5782.307,-10855.75,512
0.06835938,-5751.152,-10868.17,512
0.0703125,-5736.68,-10871.62,512
0.07226562,-5711.593,-10846.9,512
0.07421875,-5689.614,-10872.66,512
0.07617188,-5679.238,-10876.65,512
0.078125,-5671.627,-10908.76,512
0.08007812,-5683.055,-10894.26,512
0.08203125,-5679.188,-10863.5,512
0.08398438,-5688.174,-10852.71,512
0.0859375,-5684.622,-10808.73,512
0.08789062,-5680.769,-10804.93,512
0.08984375,-5687.14,-10822.1,512
0.09179688,-5671.132,-10810.43,512
0.09375,-5679.85,-10835.93,512
0.09570312,-5688.263,-10853.02,512
0.09765625,-5677.069,-10857.33,512
0.09960938,-5676.861,-10864.37,512
0.1015625,-5665.663,-10855.34,512
0.1035156,-5661.593,-10860.72,512
0.1054688,-5669.67,-10854.15,512
0.1074219,-5674.58,-10864.03,512
0.109375,-5675.264,-10868.61,512
0.1113281,-5668.856,-10850.48,512
0.1132812,-5668.884,-10836.34,512
0.1152344,-5667.199,-10858.69,512
0.1171875,-5663.053,-10881.41,512
0.1191406,-5640.434,-10886.54,512
0.1210938,-5645.174,-10891.36,512
0.1230469,-5652.546,-10872.48,512
0.125,-5666.875,-10823.23,512
0.1269531,-5657.042,-10806.21,512
0.1289062,-5662.267,-10831.67,512
0.1308594,-5669.497,-10850.37,512
0.1328125,-5675.286,-10857.59,512
0.1347656,-5671.363,-10849.6,512
0.1367188,-5662.49,-10859.45,512
0.1386719,-5665.808,-10867.97,512
0.140625,-5651.983,-10873.17,512
0.1425781,-5645.515,-10850.98,512
0.1445312,-5647.728,-10842.12,512
0.1464844,-5649.312,-10867.73,512
0.1484375,-5653.009,-10878.46,512
0.1503906,-5648.467,-10866.17,512
0.1523438,-5651.388,-10840.24,512
0.1542969,-5638.061,-10860.36,512
0.15625,-5643.103,-10844.74,512
0.1582031,-5646.982,-10813.67,512
0.1601562,-5644.989,-10812.05,512
0.1621094,-5644.596,-10816.96,512
0.1640625,-5639.029,-10829.82,512
0.1660156,-5654.893,-10852.79,512
0.1679688,-5652.326,-10863.11,512
0.1699219,-5653.925,-10864.62,512
0.171875,-5654.137,-10869.19,512
0.1738281,-5643.688,-10848.03,512
0.1757812,-5642.397,-10850.7,512
0.1777344,-5643.031,-10860.46,512
0.1796875,-5650.232,-10864.41,512
0.1816406,-5662.333,-10885.8,512
0.1835938,-5649.635,-10883.07,512
0.1855469,-5630.301,-10862.25,512
0.1875,-5623.584,-10844.38,512
0.1894531,-5620.532,-10851.96,512
0.1914062,-5627.651,-10866.19,512
0.1933594,-5622.634,-10870.22,512
0.1953125,-5638.895,-10864.98,512
0.1972656,-5639.951,-10878.79,512
0.1992188,-5634.764,-10873.42,512
0.2011719,-5634.984,-10848.64,512
0.203125,-5619.917,-10855.45,512
0.2050781,-5602.207,-10850.44,512
0.2070312,-5596.384,-10850.23,512
0.2089844,-5604.19,-10861.11,512
0.2109375,-5607.415,-10883.41,512
0.2128906,-5596.319,-10891.21,512
0.2148438,-5601.135,-10910.62,512
0.2167969,-5599.979,-10897.11,512
0.21875,-5587.708,-10900.84,512
0.2207031,-5591.795,-10919.26,512
0.2226562,-5601.101,-10915.83,512
0.2246094,-5605.325,-10883.49,512
0.2265625,-5591.368,-10874.42,512
0.2285156,-5574.963,-10852.18,512
0.2304688,-5589.368,-10840.87,512
0.2324219,-5603.904,-10905.77,512
0.234375,-5575.195,-10897.52,512
0.2363281,-5553.391,-10877.26,512
0.2382812,-5554.298,-10892.01,512
0.2402344,-5555.498,-10888.71,512
0.2421875,-5552.767,-10876.02,512
0.2441406,-5547.57,-10844.84,512
0.2460938,-5554.213,-10857.74,512
0.2480469,-5552.238,-10865.39,512
0.25,-5541.778,-10869.09,512
0.2519531,-5535.495,-10892.79,512
0.2539062,-5534.258,-10890.02,512
0.2558594,-5522.405,-10861.13,512
0.2578125,-5515.423,-10856.08,512
0.2597656,-5518.289,-10871.26,512
0.2617188,-5514.238,-10886.78,512
0.2636719,-5522.958,-10905.43,512
0.265625,-5520.998,-10879.29,512
0.2675781,-5522.626,-10849.28,512
0.2695312,-5522.769,-10843.14,512
0.2714844,-5528.997,-10843.8,512
0.2734375,-5541.885,-10865.84,512
0.2753906,-5533.995,-10859.74,512
0.2773438,-5536.538,-10861.97,512
0.2792969,-5556.872,-10884.23,512
0.28125,-5558.572,-10877.05,512
0.2832031,-5561.824,-10870.55,512
0.2851562,-5560.167,-10890.9,512
0.2871094,-5556.621,-10899.62,512
0.2890625,-5549.438,-10893.04,512
0.2910156,-5568.781,-10911.07,512
0.2929688,-5578.745,-10875.47,512
0.2949219,-5594.452,-10830.59,512
0.296875,-5609.24,-10839.3,512
0.2988281,-5615.704,-10856.11,512
0.3007812,-5621.89,-10867.8,512
0.3027344,-5620.111,-10855.13,512
0.3046875,-5622.183,-10820.61,512
0.3066406,-5642.965,-10819.5,512
0.3085938,-5645.986,-10833.33,512
0.3105469,-5658.809,-10836.27,512
0.3125,-5648.81,-10847.29,512
0.3144531,-5653.873,-10898.47,512
0.3164062,-5655.448,-10871.62,512
0.3183594,-5665.592,-10893.04,512
0.3203125,-5655.7,-10873.88,512
0.3222656,-5661.41,-10871.71,512
0.3242188,-5675.872,-10846.55,512
0.3261719,-5674.31,-10822.11,512
0.328125,-5681.25,-10843.95,512
0.3300781,-5688.629,-10850.42,512
0.3320312,-5682.928,-10842.91,512
0.3339844,-5686.313,-10842.99,512
0.3359375,-5677.874,-10838.02,512
0.3378906,-5688.705,-10842,512
0.3398438,-5687.432,-10830.4,512
0.3417969,-5673.369,-10831.89,512
0.34375,-5672.92,-10862.07,512
0.3457031,-5658.365,-10850.38,512
0.3476562,-5664.143,-10824.72,512
0.3496094,-5674.668,-10828.09,512
0.3515625,-5669.425,-10813.36,512
0.3535156,-5682.306,-10808.43,512
0.3554688,-5680.883,-10803.12,512
0.3574219,-5686.427,-10818.13,512
0.359375,-5684.232,-10826.91,512
0.3613281,-5686.885,-10831.95,512
0.3632812,-5683.46,-10837.45,512
0.3652344,-5667.111,-10845.46,512
0.3671875,-5681.913,-10838.04,512
0.3691406,-5678.97,-10832.01,512
0.3710938,-5676.884,-10826.34,512
0.3730469,-5677.224,-10818.28,512
0.375,-5676.389,-10823.81,512
0.3769531,-5682.373,-10829.94,512
0.3789062,-5680.374,-10842.72,512
0.3808594,-5676.876,-10858.94,512
0.3828125,-5661.84,-10846.4,512
0.3847656,-5676.098,-10841.32,512
0.3867188,-5678.205,-10835.8,512
0.3886719,-5686.99,-10839.15,512
0.390625,-5688.069,-10829.37,512
0.3925781,-5678.737,-10842,512
0.3945312,-5675.398,-10840.42,512
0.3964844,-5672.662,-10825.32,512
0.3984375,-5694.998,-10850.7,512
0.4003906,-5675.282,-10831.71,512
0.4023438,-5671.208,-10834.5,512
0.4042969,-5682.426,-10837.04,512
0.40625,-5683.898,-10838.3,512
0.4082031,-5695.136,-10845.12,512
0.4101562,-5684.887,-10846.58,512
0.4121094,-5690.648,-10859.33,512
0.4140625,-5692.555,-10856.68,512
0.4160156,-5692.952,-10865.57,512
0.4179688,-5692.336,-10862.68,512
0.4199219,-5696.658,-10849.51,512
0.421875,-5682.643,-10847.75,512
0.4238281,-5685.355,-10854.87,512
0.4257812,-5685.212,-10840.25,512
0.4277344,-5686.122,-10850.61,512
0.4296875,-5684.827,-10860.59,512
0.4316406,-5675.028,-10838.49,512
0.4335938,-5664.009,-10816.09,512
0.4355469,-5676.008,-10821.22,512
0.4375,-5684.584,-10831.78,512
0.4394531,-5678.94,-10821.64,512
0.4414062,-5683.627,-10820.02,512
0.4433594,-5683.089,-10840.09,512
0.4453125,-5671.845,-10858.84,512
0.4472656,-5692.382,-10824.51,512
0.4492188,-5688.722,-10828.67,512
0.4511719,-5684.359,-10838.87,512
0.453125,-5682.965,-10821.27,512
0.4550781,-5692.305,-10837.81,512
0.4570312,-5680.461,-10838.55,512
0.4589844,-5660.689,-10819.6,512
0.4609375,-5666.3,-10833.71,512
0.4628906,-5669.312,-10841.54,512
0.4648438,-5688.833,-10846.62,512
0.4667969,-5698.244,-10854.94,512
0.46875,-5686.325,-10842.83,512
0.4707031,-5681.686,-10834.14,512
0.4726562,-5668.765,-10825.51,512
0.4746094,-5674.973,-10852.98,512
0.4765625,-5676.303,-10867.61,512
0.4785156,-5670.353,-10877.57,512
0.4804688,-5684.472,-10871.22,512
0.4824219,-5701.253,-10868.68,512
0.484375,-5685.679,-10872.75,512
0.4863281,-5680.753,-10839.63,512
0.4882812,-5681.192,-10832.06,512
0.4902344,-5678.115,-10803.51,512
0.4921875,-5683.964,-10839.16,512
0.4941406,-5677.55,-10873.83,512
0.4960938,-5668.821,-10871.79,512
0.4980469,-5657,-10886.64,512
0.5,-5659.827,-10904.14,512
0.5019531,-5659.381,-10872.94,512
0.5039062,-5662.602,-10832.67,512
0.5058594,-5678.858,-10779.43,512
0.5078125,-5690.259,-10769.96,512
0.5097656,-5695.043,-10803.4,512
0.5117188,-5679.312,-10791.06,512
0.5136719,-5686.172,-10815.13,512
0.515625,-5704.505,-10857.18,512
0.5175781,-5686.116,-10823.56,512
0.5195312,-5669.487,-10812.68,512
0.5214844,-5670.899,-10817.66,512
0.5234375,-5678.856,-10827.31,512
0.5253906,-5667.433,-10827.83,512
0.5273438,-5657.816,-10810.91,512
0.5292969,-5670.188,-10816.56,512
0.53125,-5667.358,-10836.77,512
0.5332031,-5664.943,-10842.35,512
0.5351562,-5648.899,-10840.27,512
0.5371094,-5654.986,-10841.83,512
0.5390625,-5663.068,-10852.13,512
0.5410156,-5652.335,-10876.1,512
0.5429688,-5650.573,-10825.98,512
0.5449219,-5663.777,-10784.93,512
0.546875,-5671.192,-10791.68,512
0.5488281,-5676.281,-10791.6,512
0.5507812,-5658.991,-10791.16,512
0.5527344,-5679.949,-10815.35,512
0.5546875,-5673.691,-10818.97,512
0.5566406,-5661.709,-10796.17,512
0.5585938,-5660.074,-10797.09,512
0.5605469,-5670.146,-10822.04,512
0.5625,-5678.511,-10824.73,512
0.5644531,-5678.272,-10858.34,512
0.5664062,-5686.065,-10867.01,512
0.5683594,-5675.073,-10864.66,512
0.5703125,-5686.76,-10827.56,512
0.5722656,-5679.182,-10797.17,512
0.5742188,-5695.933,-10820.47,512
0.5761719,-5695.617,-10848.58,512
0.578125,-5692.854,-10853.47,512
0.5800781,-5702.064,-10822.33,512
0.5820312,-5701.49,-10848.38,512
0.5839844,-5700.656,-10853.45,512
0.5859375,-5704.361,-10867.95,512
0.5878906,-5693.612,-10883.47,512
0.5898438,-5689.529,-10861.98,512
0.5917969,-5684.853,-10817.84,512
0.59375,-5670.469,-10803.91,512
0.5957031,-5677.189,-10828.43,512
0.5976562,-5694.896,-10833.33,512
0.5996094,-5692.831,-10851.07,512
0.6015625,-5692.955,-10856.46,512
0.6035156,-5673,-10856.76,512
0.6054688,-5674.356,-10855.35,512
0.6074219,-5693.276,-10850.74,512
0.609375,-5687.673,-10828.28,512
0.6113281,-5695.295,-10824.44,512
0.6132812,-5691.519,-10851.66,512
0.6152344,-5683.511,-10860.4,512
0.6171875,-5687.143,-10858.6,512
0.6191406,-5701.529,-10860.34,512
0.6210938,-5700.536,-10843.89,512
0.6230469,-5687.121,-10787.27,512
0.625,-5686.019,-10812.59,512
0.6269531,-5692.653,-10844.35,512
0.6289062,-5693.344,-10823.74,512
0.6308594,-5708.983,-10821.04,512
0.6328125,-5682.768,-10813.32,512
0.6347656,-5667.048,-10824.1,512
0.6367188,-5693.671,-10845.93,512
0.6386719,-5699.03,-10849.75,512
0.640625,-5692.623,-10829.71,512
0.6425781,-5680.089,-10811.29,512
0.6445312,-5664.667,-10798.23,512
0.6464844,-5673.811,-10831.14,512
0.6484375,-5679.771,-10861.25,512
0.6503906,-5678.416,-10881.03,512
0.6523438,-5683.319,-10862.21,512
0.6542969,-5689.272,-10845.8,512
0.65625,-5690.457,-10829.15,512
0.6582031,-5693.475,-10807.37,512
0.6601562,-5694.29,-10804.05,512
0.6621094,-5688.708,-10796.17,512
0.6640625,-5683.26,-10804,512
0.6660156,-5679.761,-10838.97,512
0.6679688,-5688.407,-10846.71,512
0.6699219,-5709.344,-10839.15,512
0.671875,-5710.165,-10843.02,512
0.6738281,-5699.515,-10842.47,512
0.6757812,-5693.543,-10846.63,512
0.6777344,-5683.376,-10839.92,512
0.6796875,-5697.874,-10831.76,512
0.6816406,-5701.825,-10852.14,512
0.6835938,-5707.418,-10867.18,512
0.6855469,-5678.875,-10848.8,512
0.6875,-5672.029,-10827.57,512
0.6894531,-5666.498,-10826.51,512
0.6914062,-5663.757,-10849.16,512
0.6933594,-5652.771,-10848.41,512
0.6953125,-5672.555,-10859.02,512
0.6972656,-5680.946,-10861.09,512
0.6992188,-5679.876,-10842.59,512
0.7011719,-5671.694,-10820,512
0.703125,-5669.62,-10805.54,512
0.7050781,-5656.346,-10789.68,512
0.7070312,-5659.889,-10802.33,512
0.7089844,-5654.625,-10790.06,512
0.7109375,-5661.483,-10818.53,512
0.7128906,-5650.72,-10821.01,512
0.7148438,-5650.522,-10825.38,512
0.7167969,-5665.084,-10873.38,512
0.71875,-5658.5,-10882.32,512
0.7207031,-5646.975,-10881.1,512
0.7226562,-5645.547,-10888.38,512
0.7246094,-5673.425,-10860.16,512
0.7265625,-5656.623,-10818.02,512
0.7285156,-5660.91,-10849.19,512
0.7304688,-5667.703,-10855.6,512
0.7324219,-5643.263,-10858.83,512
0.734375,-5643.18,-10852.23,512
0.7363281,-5662.74,-10836.66,512
0.7382812,-5650.81,-10825.84,512
0.7402344,-5640.323,-10799.73,512
0.7421875,-5651.995,-10807.36,512
0.7441406,-5658.012,-10830.27,512
0.7460938,-5651.453,-10841.99,512
0.7480469,-5659.014,-10846.4,512
0.75,-5641.707,-10813.45,512
0.7519531,-5625.06,-10808.17,512
0.7539062,-5655.817,-10834.59,512
0.7558594,-5653.131,-10858.76,512
0.7578125,-5620.812,-10851.59,512
0.7597656,-5640.372,-10878.48,512
0.7617188,-5645.271,-10876.8,512
0.7636719,-5648.541,-10810.05,512
0.765625,-5673.103,-10777.85,512
0.7675781,-5672.038,-10800.19,512
0.7695312,-5659.517,-10790.51,512
0.7714844,-5669.749,-10800.8,512
0.7734375,-5674.142,-10817.63,512
0.7753906,-5669.178,-10803.3,512
0.7773438,-5658.287,-10798.26,512
0.7792969,-5666.205,-10810.33,512
0.78125,-5667.816,-10812.27,512
0.7832031,-5663.494,-10815.1,512
0.7851562,-5665.562,-10824.47,512
0.7871094,-5660.602,-10820.46,512
0.7890625,-5665.077,-10824.91,512
0.7910156,-5666.835,-10820.21,512
0.7929688,-5663.027,-10816.42,512
0.7949219,-5670.267,-10827.87,512
0.796875,-5657.528,-10838.77,512
0.7988281,-5662.73,-10845.75,512
0.8007812,-5665.651,-10842.16,512
0.8027344,-5672.218,-10836.69,512
0.8046875,-5682.169,-10816.57,512
0.8066406,-5674.088,-10808.64,512
0.8085938,-5669.132,-10827.03,512
0.8105469,-5661.111,-10846.98,512
0.8125,-5666,-10871.47,512
0.8144531,-5661.519,-10902.41,512
0.8164062,-5653.521,-10952.37,512
0.8183594,-5665.5,-10895.18,512
0.8203125,-5673.858,-10839.31,512
0.8222656,-5678.679,-10804.38,512
0.8242188,-5690.047,-10761.99,512
0.8261719,-5687.928,-10758.06,512
0.828125,-5685.007,-10785.86,512
0.8300781,-5688.018,-10788.41,512
0.8320312,-5686.627,-10810.36,512
0.8339844,-5682.112,-10792.45,512
0.8359375,-5667.93,-10787.15,512
0.8378906,-5674.61,-10811.28,512
0.8398438,-5668.814,-10802.91,512
0.8417969,-5657.883,-10803.03,512
0.84375,-5653.922,-10810.38,512
0.8457031,-5641.986,-10808.2,512
0.8476562,-5629.16,-10808.11,512
0.8496094,-5632.216,-10816.65,512
0.8515625,-5608.808,-10812.12,512
0.8535156,-5583.191,-10822.89,512
0.8554688,-5573.592,-10852.13,512
0.8574219,-5550.598,-10820.15,512
0.859375,-5543.563,-10831.6,512
0.8613281,-5546.296,-10871.78,512
0.8632812,-5555.121,-10912.67,512
0.8652344,-5555.278,-10917.12,512
0.8671875,-5549.322,-10910.91,512
0.8691406,-5566.036,-10919.92,512
0.8710938,-5599.023,-10909.94,512
0.8730469,-5618.53,-10886.56,512
0.875,-5647.411,-10858.83,512
0.8769531,-5659.338,-10854.78,512
0.8789062,-5679.166,-10870.45,512
0.8808594,-5687.808,-10882.12,512
0.8828125,-5692.413,-10900.83,512
0.8847656,-5680.368,-10895.3,512
0.8867188,-5698.59,-10889.47,512
0.8886719,-5715.613,-10893.53,512
0.890625,-5764.512,-10854.65,512
0.8925781,-5785.6,-10827.07,512
0.8945312,-5762.273,-10810.55,512
0.8964844,-5775.891,-10763.61,512
0.8984375,-5759.036,-10778.9,512
0.9003906,-5745.064,-10785.71,512
0.9023438,-5732.489,-10823.14,512
0.9042969,-5720.062,-10839.79,512
0.90625,-5727.595,-10828.71,512
0.9082031,-5708.693,-10813,512
0.9101562,-5683.372,-10802.89,512
0.9121094,-5672.391,-10825.71,512
0.9140625,-5671.37,-10801.61,512
0.9160156,-5666.9,-10804.27,512
0.9179688,-5662.142,-10814.62,512
0.9199219,-5670.534,-10804.24,512
0.921875,-5665.661,-10792.81,512
0.9238281,-5670.824,-10800.89,512
0.9257812,-5658.95,-10813.71,512
0.9277344,-5658.606,-10817.7,512
0.9296875,-5664.348,-10821.33,512
0.9316406,-5660.592,-10810.6,512
0.9335938,-5657.117,-10832.82,512
0.9355469,-5651.465,-10836.76,512
0.9375,-5660.058,-10847.49,512
0.9394531,-5650.825,-10814.59,512
0.9414062,-5645.732,-10815.98,512
0.9433594,-5653.273,-10817.52,512
0.9453125,-5654.146,-10815.1,512
0.9472656,-5643.478,-10819.84,512
0.9492188,-5651.735,-10805.39,512
0.9511719,-5661.471,-10811.98,512
0.953125,-5646.65,-10818.22,512
0.9550781,-5650.335,-10827.5,512
0.9570312,-5657.269,-10844.25,512
0.9589844,-5647.673,-10858.79,512
0.9609375,-5633.208,-10853.85,512
0.9628906,-5633.58,-10855.26,512
0.9648438,-5644.475,-10873.7,512
0.9667969,-5640.799,-10799.72,512
0.96875,-5645.312,-10784.2,512
0.9707031,-5656.652,-10806.03,512
0.9726562,-5644.824,-10809.51,512
0.9746094,-5636.354,-10821.96,512
0.9765625,-5631.879,-10810.69,512
0.9785156,-5638.53,-10831.63,512
0.9804688,-5644.692,-10869.86,512
0.9824219,-5634.987,-10851,512
0.984375,-5650.725,-10842.18,512
0.9863281,-5649.277,-10833.28,512
0.9882812,-5641.412,-10835.73,512
0.9902344,-5621.482,-10815.19,512
0.9921875,-5631.079,-10817.55,512
0.9941406,-5643.508,-10867.24,512
0.9960938,-5634.5,-10849.48,512
0.9980469,-5625.694,-10817.64,512
1,-5622.479,-10805.22,512
1.001953,-5623.703,-10784.11,512
1.003906,-5621.558,-10793.53,512
1.005859,-5641.739,-10825.45,512
1.007812,-5633.709,-10786.98,512
1.009766,-5599.608,-10779.9,512
1.011719,-5614.74,-10805.67,512
1.013672,-5627.576,-10835.12,512
1.015625,-5629.348,-10843.42,512
1.017578,-5615.688,-10831.26,512
1.019531,-5612.235,-10843.43,512
1.021484,-5601.086,-10802.29,512
1.023438,-5598.527,-10783.64,512
1.025391,-5603.953,-10804.99,512
1.027344,-5599.425,-10818.31,512
1.029297,-5593.205,-10796.22,512
1.03125,-5600.537,-10806.57,512
1.033203,-5600.776,-10808.64,512
1.035156,-5583.334,-10820,512
1.037109,-5578.678,-10805.7,512
1.039062,-5594.513,-10802.38,512
1.041016,-5588.756,-10805.4,512
1.042969,-5577.463,-10805.78,512
1.044922,-5581.021,-10816.68,512
1.046875,-5581.016,-10827.02,512
1.048828,-5576.706,-10845.27,512
1.050781,-5570.558,-10827.85,512
1.052734,-5568.881,-10828.64,512
1.054688,-5566.92,-10836.12,512
1.056641,-5554.14,-10833.26,512
1.058594,-5552.577,-10843.59,512
1.060547,-5544.633,-10845.47,512
1.0625,-5541.63,-10852.94,512
1.064453,-5537.267,-10840.46,512
1.066406,-5537.81,-10841.19,512
1.068359,-5539.866,-10855.67,512
1.070312,-5535.414,-10856.6,512
1.072266,-5524.095,-10846.12,512
1.074219,-5536.005,-10875.81,512
1.076172,-5531.386,-10824.92,512
1.078125,-5528.628,-10823.87,512
1.080078,-5532.447,-10843.04,512
1.082031,-5528.707,-10854.72,512
1.083984,-5508.186,-10862.99,512
1.085938,-5488.635,-10853.09,512
1.087891,-5490.002,-10866.7,512
1.089844,-5484.329,-10860.67,512
1.091797,-5514.122,-10880.7,512
1.09375,-5505.448,-10902.39,512
1.095703,-5534.805,-10902.27,512
1.097656,-5555.896,-10836.57,512
1.099609,-5539.192,-10869.25,512
1.101562,-5518.119,-10828.38,512
1.103516,-5507.698,-10791.16,512
1.105469,-5514.596,-10817.92,512
1.107422,-5533.07,-10836.94,512
1.109375,-5522.422,-10840.83,512
1.111328,-5516.781,-10852.59,512
1.113281,-5516.433,-10854.43,512
1.115234,-5527.503,-10859.24,512
1.117188,-5515.688,-10834.5,512
1.119141,-5535.121,-10844.65,512
1.121094,-5544.689,-10832.31,512
1.123047,-5551.848,-10819.05,512
1.125,-5568.734,-10828.85,512
1.126953,-5556.302,-10814.65,512
1.128906,-5557.521,-10810.47,512
1.130859,-5570.259,-10824.43,512
1.132812,-5581.976,-10810.92,512
1.134766,-5575.892,-10796.43,512
1.136719,-5592.662,-10810.51,512
1.138672,-5607.341,-10816.43,512
1.140625,-5592.174,-10808.13,512
1.142578,-5592.699,-10810.98,512
1.144531,-5593.693,-10807.17,512
1.146484,-5593.6,-10788.59,512
1.148438,-5612.904,-10797.77,512
1.150391,-5624.643,-10802.14,512
1.152344,-5627.741,-10805.32,512
1.154297,-5626.757,-10803.91,512
1.15625,-5627.343,-10819.73,512
1.158203,-5613.474,-10820.68,512
1.160156,-5616.502,-10803.78,512
1.162109,-5628.263,-10801.91,512
1.164062,-5632.277,-10778.73,512
1.166016,-5635.5,-10771.75,512
1.167969,-5643.672,-10813.49,512
1.169922,-5652.128,-10783.78,512
1.171875,-5643.76,-10784.11,512
1.173828,-5645.572,-10807.64,512
1.175781,-5638.476,-10809.22,512
1.177734,-5638.303,-10808.53,512
1.179688,-5638.045,-10858.27,512
1.181641,-5648.269,-10844.39,512
1.183594,-5666.626,-10785.9,512
1.185547,-5669.273,-10772.13,512
1.1875,-5662.941,-10785.23,512
1.189453,-5657.654,-10780.89,512
1.191406,-5662.316,-10785.16,512
1.193359,-5663.217,-10807.05,512
1.195312,-5656.353,-10813.43,512
1.197266,-5658.478,-10823.81,512
1.199219,-5666.39,-10832.21,512
1.201172,-5645.209,-10809.99,512
1.203125,-5646.427,-10810.31,512
1.205078,-5664.556,-10782.02,512
1.207031,-5675.503,-10789.81,512
1.208984,-5681.432,-10818.88,512
1.210938,-5669.263,-10811.26,512
1.212891,-5659.216,-10800.99,512
1.214844,-5656.827,-10790.84,512
1.216797,-5660.219,-10802.26,512
1.21875,-5673.408,-10820.21,512
1.220703,-5667.427,-10831.44,512
1.222656,-5657.656,-10833.32,512
1.224609,-5659.56,-10839.78,512
1.226562,-5649.585,-10845.58,512
1.228516,-5641.874,-10840.41,512
1.230469,-5652.311,-10807.77,512
1.232422,-5660.766,-10779.71,512
1.234375,-5658.129,-10800.7,512
1.236328,-5657.54,-10800.87,512
1.238281,-5659.281,-10801.47,512
1.240234,-5668.218,-10803.34,512
1.242188,-5677.052,-10800.78,512
1.244141,-5656.445,-10797.09,512
1.246094,-5662.073,-10807.81,512
1.248047,-5657.4,-10811.15,512
1.25,-5669.854,-10814.32,512
1.251953,-5676.697,-10825.1,512
1.253906,-5677.452,-10826.98,512
1.255859,-5655.781,-10815.73,512
1.257812,-5656.794,-10815,512
1.259766,-5662.555,-10814.33,512
1.261719,-5669.208,-10846.62,512
1.263672,-5660.216,-10850.77,512
1.265625,-5656.956,-10831.68,512
1.267578,-5656.479,-10829.12,512
1.269531,-5665.143,-10833.23,512
1.271484,-5659.512,-10851.79,512
1.273438,-5655.605,-10857.4,512
1.275391,-5659.825,-10839,512
1.277344,-5653.101,-10864.39,512
1.279297,-5672.045,-10799.65,512
1.28125,-5695.799,-10741.2,512
1.283203,-5692.315,-10782.58,512
1.285156,-5686.806,-10790.34,512
1.287109,-5685.792,-10792.56,512
1.289062,-5679.529,-10809.1,512
1.291016,-5671.22,-10815.24,512
1.292969,-5671.239,-10820.97,512
1.294922,-5667.241,-10825.61,512
1.296875,-5678.463,-10832.34,512
1.298828,-5675.32,-10837.03,512
1.300781,-5694.485,-10859.01,512
1.302734,-5697.88,-10856.22,512
1.304688,-5676.54,-10819.28,512
1.306641,-5697.842,-10811.42,512
1.308594,-5689.871,-10829.65,512
1.310547,-5682.868,-10824.51,512
1.3125,-5686.86,-10833.28,512
1.314453,-5673.278,-10847.48,512
1.316406,-5684.125,-10874.38,512
1.318359,-5691.226,-10851.74,512
1.320312,-5686.619,-10819.5,512
1.322266,-5691.853,-10819.42,512
1.324219,-5682.605,-10817.63,512
1.326172,-5687.097,-10830.79,512
1.328125,-5681.382,-10833.36,512
1.330078,-5686.231,-10835.84,512
1.332031,-5693.032,-10822.36,512
1.333984,-5682.767,-10820.36,512
1.335938,-5675.914,-10832.55,512
1.337891,-5678.268,-10820.73,512
1.339844,-5693.157,-10821.23,512
1.341797,-5692.645,-10845.49,512
1.34375,-5696.652,-10855.47,512
1.345703,-5700.51,-10844.78,512
1.347656,-5692.938,-10837.65,512
1.349609,-5687.274,-10854.83,512
1.351562,-5678.707,-10867.71,512
1.353516,-5675.531,-10875.6,512
1.355469,-5680.116,-10877.81,512
1.357422,-5695.306,-10849.78,512
1.359375,-5700.361,-10855.05,512
1.361328,-5681.485,-10850.29,512
1.363281,-5685.33,-10832.75,512
1.365234,-5699.931,-10841.86,512
1.367188,-5703.25,-10829.77,512
1.369141,-5689.932,-10796.46,512
1.371094,-5683.995,-10799.97,512
1.373047,-5680.807,-10822.13,512
1.375,-5672.317,-10832.72,512
1.376953,-5678.508,-10815.01,512
1.378906,-5686.694,-10839.2,512
1.380859,-5686.104,-10863.7,512
1.382812,-5681.089,-10868.17,512
1.384766,-5673.316,-10838.33,512
1.386719,-5676.056,-10851.68,512
1.388672,-5678.867,-10862.07,512
1.390625,-5681.082,-10835.75,512
1.392578,-5688.181,-10833.58,512
1.394531,-5697.323,-10832.91,512
1.396484,-5688.207,-10821.02,512
1.398438,-5685.538,-10840.81,512
1.400391,-5683.539,-10854.93,512
1.402344,-5683.922,-10864.04,512
1.404297,-5704.52,-10838.21,512
1.40625,-5710.8,-10805.92,512
1.408203,-5714.183,-10810.13,512
1.410156,-5709.708,-10805.73,512
1.412109,-5702.673,-10819.2,512
1.414062,-5699.502,-10830.45,512
1.416016,-5688.291,-10814.63,512
1.417969,-5689.308,-10822.06,512
1.419922,-5690.895,-10827.84,512
1.421875,-5694.88,-10832.57,512
1.423828,-5699.463,-10844.19,512
1.425781,-5704.079,-10840.28,512
1.427734,-5691.296,-10836.01,512
1.429688,-5698.725,-10865.18,512
1.431641,-5694.25,-10869.47,512
1.433594,-5682.604,-10863.69,512
1.435547,-5687.504,-10851.01,512
1.4375,-5696.681,-10863.46,512
1.439453,-5715.833,-10833.97,512
1.441406,-5722.726,-10827.79,512
1.443359,-5715.133,-10835,512
1.445312,-5704.999,-10834.29,512
1.447266,-5712.677,-10860.25,512
1.449219,-5696.48,-10863.29,512
1.451172,-5696.589,-10890.66,512
1.453125,-5688.318,-10863.1,512
1.455078,-5695.276,-10873.53,512
1.457031,-5721.852,-10861.07,512
1.458984,-5713.213,-10833.04,512
1.460938,-5724.081,-10844.7,512
1.462891,-5727.679,-10837.59,512
1.464844,-5718.342,-10837.55,512
1.466797,-5715.618,-10839.79,512
1.46875,-5702.664,-10826.1,512
1.470703,-5715.317,-10841.21,512
1.472656,-5712.479,-10835.52,512
1.474609,-5713.978,-10842.09,512
1.476562,-5708.551,-10846.6,512
1.478516,-5705.647,-10853.08,512
1.480469,-5716.855,-10868.76,512
1.482422,-5715.048,-10868.04,512
1.484375,-5714.553,-10848.99,512
1.486328,-5717.567,-10857.82,512
1.488281,-5710.765,-10855.47,512
1.490234,-5708.472,-10847.56,512
1.492188,-5720.26,-10839.74,512
1.494141,-5714.505,-10841.56,512
1.496094,-5705.294,-10839.39,512
1.498047,-5712.833,-10847.77,512
1.5,-5711.535,-10856.79,512
1.501953,-5714.332,-10881.63,512
1.503906,-5719.103,-10869.38,512
1.505859,-5726.578,-10866.78,512
1.507812,-5734.438,-10883.15,512
1.509766,-5727.681,-10839.2,512
1.511719,-5721.461,-10848.8,512
1.513672,-5737.427,-10866.15,512
1.515625,-5721.041,-10861.16,512
1.517578,-5708.486,-10881.99,512
1.519531,-5705.096,-10877.32,512
1.521484,-5703.39,-10858.24,512
1.523438,-5727.73,-10859.54,512
1.525391,-5725.046,-10844.16,512
1.527344,-5709.962,-10835.04,512
1.529297,-5713.949,-10846.3,512
1.53125,-5707.819,-10859.53,512
1.533203,-5711.168,-10856.44,512
1.535156,-5703.198,-10836.28,512
1.537109,-5715.517,-10887.75,512
1.539062,-5718.626,-10896.35,512
1.541016,-5715.519,-10878.97,512
1.542969,-5700.372,-10885.31,512
1.544922,-5697.302,-10887.38,512
1.546875,-5714.833,-10884.29,512
1.548828,-5716.83,-10858.79,512
1.550781,-5724.648,-10849.67,512
1.552734,-5718.195,-10869.14,512
1.554688,-5696.811,-10876.97,512
1.556641,-5697.917,-10890.27,512
1.558594,-5681.975,-10900.27,512
1.560547,-5672.731,-10909.25,512
1.5625,-5680.826,-10911.76,512
1.564453,-5683.796,-10863.86,512
1.566406,-5704.348,-10865.79,512
1.568359,-5717.639,-10840.41,512
1.570312,-5695.477,-10793.96,512
1.572266,-5707.87,-10836.34,512
1.574219,-5706.302,-10831.61,512
1.576172,-5697.051,-10823.06,512
1.578125,-5703.176,-10823.25,512
1.580078,-5711.348,-10845.82,512
1.582031,-5713.462,-10859.13,512
1.583984,-5699.604,-10855.11,512
1.585938,-5686.95,-10857.02,512
1.587891,-5687.48,-10892.39,512
1.589844,-5694.965,-10844.53,512
1.591797,-5701.851,-10838.64,512
1.59375,-5700.602,-10864.16,512
1.595703,-5707.719,-10860.85,512
1.597656,-5726.554,-10854.64,512
1.599609,-5722.267,-10861.69,512
1.601562,-5715.747,-10848.24,512
1.603516,-5717.146,-10848.07,512
1.605469,-5741.758,-10849.87,512
1.607422,-5728.187,-10834.66,512
1.609375,-5707.561,-10831.6,512
1.611328,-5719.62,-10850.05,512
1.613281,-5732.004,-10865.55,512
1.615234,-5721.67,-10855.45,512
1.617188,-5715.71,-10848.59,512
1.619141,-5719.161,-10873.97,512
1.621094,-5718.227,-10858.14,512
1.623047,-5716.256,-10868.9,512
1.625,-5710.195,-10884.78,512
1.626953,-5702.104,-10823.24,512
1.628906,-5703.602,-10847.24,512
1.630859,-5720.48,-10859.07,512
1.632812,-5723.06,-10848.45,512
1.634766,-5720.29,-10841.54,512
1.636719,-5708.445,-10845.88,512
1.638672,-5711.262,-10849.47,512
1.640625,-5704.878,-10842.78,512
1.642578,-5714.097,-10856.59,512
1.644531,-5721.687,-10863.27,512
1.646484,-5690.894,-10874.54,512
1.648438,-5702.365,-10841.88,512
1.650391,-5730.864,-10832.23,512
1.652344,-5733.515,-10830.64,512
1.654297,-5712.28,-10799.93,512
1.65625,-5712.805,-10812.84,512
1.658203,-5706.504,-10811.37,512
1.660156,-5695.775,-10815.55,512
1.662109,-5715.104,-10837.87,512
1.664062,-5713.279,-10851.56,512
1.666016,-5708.062,-10853.94,512
1.667969,-5687.052,-10827.5,512
1.669922,-5673.859,-10830.17,512
1.671875,-5675.689,-10824.94,512
1.673828,-5679.567,-10828.41,512
1.675781,-5671.07,-10846.66,512
1.677734,-5646.811,-10833.35,512
1.679688,-5626.806,-10827.21,512
1.681641,-5602.158,-10837.99,512
1.683594,-5593.222,-10863.71,512
1.685547,-5596.68,-10875.65,512
1.6875,-5599.274,-10890.94,512
1.689453,-5586.004,-10900.72,512
1.691406,-5611.644,-10905.72,512
1.693359,-5601.182,-10900.21,512
1.695312,-5603.922,-10929.45,512
1.697266,-5640.58,-10928.38,512
1.699219,-5681.559,-10912.84,512
1.701172,-5703.993,-10940.15,512
1.703125,-5702.809,-10981.4,512
1.705078,-5698.009,-10927.15,512
1.707031,-5706.589,-10911.26,512
1.708984,-5712.408,-10915.09,512
1.710938,-5727.18,-10882.53,512
1.712891,-5747.647,-10886.88,512
1.714844,-5780.942,-10867.83,512
1.716797,-5816.271,-10820.21,512
1.71875,-5829.124,-10807.47,512
1.720703,-5816.655,-10825.76,512
1.722656,-5805.191,-10815.73,512
1.724609,-5800.853,-10805.65,512
1.726562,-5810.144,-10864.7,512
1.728516,-5796.998,-10870.31,512
1.730469,-5761.176,-10846.32,512
1.732422,-5749.175,-10864.47,512
1.734375,-5735.028,-10854.97,512
1.736328,-5734.571,-10863.9,512
1.738281,-5724.432,-10844.03,512
1.740234,-5713.907,-10848.89,512
1.742188,-5708.679,-10867.22,512
1.744141,-5691.74,-10873.18,512
1.746094,-5685.154,-10862.98,512
1.748047,-5690.564,-10877.35,512
1.75,-5705.733,-10842.62,512
1.751953,-5703.582,-10824.82,512
1.753906,-5701.416,-10843.91,512
1.755859,-5703.236,-10835.42,512
1.757812,-5691.563,-10830.21,512
1.759766,-5690.664,-10837.29,512
1.761719,-5687.167,-10862.62,512
1.763672,-5691.194,-10828.62,512
1.765625,-5694.454,-10831.76,512
1.767578,-5692.276,-10835.58,512
1.769531,-5699.982,-10848.72,512
1.771484,-5694.562,-10825.28,512
1.773438,-5691.637,-10804.63,512
1.775391,-5691.966,-10829.79,512
1.777344,-5689.165,-10836.25,512
1.779297,-5681.501,-10855.92,512
1.78125,-5690.709,-10865.67,512
1.783203,-5690.993,-10840.54,512
1.785156,-5681.636,-10854.54,512
1.787109,-5683.882,-10862.58,512
1.789062,-5686.464,-10860.12,512
1.791016,-5672.624,-10835.59,512
1.792969,-5667.712,-10831.98,512
1.794922,-5685.5,-10851.64,512
1.796875,-5683.261,-10842.28,512
1.798828,-5690.979,-10855.26,512
1.800781,-5682.439,-10856.18,512
1.802734,-5697.117,-10853.56,512
1.804688,-5691.036,-10878.32,512
1.806641,-5700.82,-10859.3,512
1.808594,-5695.966,-10820.16,512
1.810547,-5684.293,-10833,512
1.8125,-5685.071,-10842.97,512
1.814453,-5692.782,-10859.51,512
1.816406,-5701.289,-10865.59,512
1.818359,-5686.99,-10863.19,512
1.820312,-5687.157,-10855.29,512
1.822266,-5684.836,-10833.78,512
1.824219,-5683.678,-10855.46,512
1.826172,-5666.781,-10828.6,512
1.828125,-5668.901,-10843,512
1.830078,-5670.256,-10854.93,512
1.832031,-5679.081,-10847.76,512
1.833984,-5677.218,-10839.86,512
1.835938,-5672.977,-10829.46,512
1.837891,-5672.185,-10840.65,512
1.839844,-5675.954,-10853.58,512
1.841797,-5662.746,-10850.38,512
1.84375,-5668.436,-10849.33,512
1.845703,-5663.971,-10868.96,512
1.847656,-5673.595,-10870.29,512
1.849609,-5671.046,-10851.03,512
1.851562,-5648.673,-10856.93,512
1.853516,-5654.433,-10854.72,512
1.855469,-5658.56,-10882.82,512
1.857422,-5642.631,-10874.52,512
1.859375,-5639.877,-10835.42,512
1.861328,-5642.605,-10839.86,512
1.863281,-5658.497,-10854.08,512
1.865234,-5657.953,-10833.61,512
1.867188,-5653.595,-10805.21,512
1.869141,-5657.559,-10833.99,512
1.871094,-5648.082,-10842.03,512
1.873047,-5627.835,-10829.32,512
1.875,-5633.049,-10847.96,512
1.876953,-5620.523,-10842.21,512
1.878906,-5616.539,-10855.6,512
1.880859,-5617.797,-10851.69,512
1.882812,-5622.908,-10856.41,512
1.884766,-5616.227,-10873.07,512
1.886719,-5596.418,-10857.77,512
1.888672,-5598.157,-10871.95,512
1.890625,-5603.001,-10871.47,512
1.892578,-5579.265,-10863.56,512
1.894531,-5586.575,-10872.71,512
1.896484,-5597.977,-10858.04,512
1.898438,-5580.166,-10851.74,512
1.900391,-5576.3,-10853.77,512
1.902344,-5583.054,-10877.84,512
1.904297,-5570.318,-10884.75,512
1.90625,-5571.481,-10893.36,512
1.908203,-5584.7,-10893.62,512
1.910156,-5567.346,-10881.25,512
1.912109,-5560.196,-10873.15,512
1.914062,-5570.281,-10893.84,512
1.916016,-5558.261,-10909.13,512
1.917969,-5557.526,-10880.63,512
1.919922,-5572.904,-10886.08,512
1.921875,-5568.298,-10878.66,512
1.923828,-5575.572,-10858.4,512
1.925781,-5564.746,-10852.02,512
1.927734,-5564.858,-10861.78,512
1.929688,-5567.752,-10853,512
1.931641,-5572.694,-10851.56,512
1.933594,-5573.427,-10867.54,512
1.935547,-5577.258,-10864.85,512
1.9375,-5575.463,-10890.75,512
1.939453,-5576.954,-10875.21,512
1.941406,-5588.565,-10914.01,512
1.943359,-5581.889,-10897.81,512
1.945312,-5592.929,-10854.1,512
1.947266,-5601.559,-10884.61,512
1.949219,-5606.056,-10875.07,512
1.951172,-5609.849,-10875.41,512
1.953125,-5616.222,-10886.77,512
1.955078,-5624.692,-10865.55,512
1.957031,-5631.704,-10853.86,512
1.958984,-5632.92,-10833.26,512
1.960938,-5635.454,-10836.37,512
1.962891,-5641.496,-10837.26,512
1.964844,-5647.936,-10837.08,512
1.966797,-5657.825,-10851.43,512
1.96875,-5654.528,-10841.44,512
1.970703,-5672.559,-10852.32,512
1.972656,-5666.986,-10844.77,512
1.974609,-5663.976,-10838.12,512
1.976562,-5666.034,-10852.58,512
1.978516,-5676.357,-10855.5,512
1.980469,-5684.231,-10865.36,512
1.982422,-5680.411,-10827.99,512
1.984375,-5684.508,-10836.37,512
1.986328,-5686.373,-10844.09,512
1.988281,-5682.51,-10840.75,512
1.990234,-5679.976,-10833.3,512
1.992188,-5679.619,-10827.22,512
1.994141,-5691.853,-10846.63,512
1.996094,-5679.616,-10889.33,512
1.998047,-5670.46,-10920.4,512
2,-5671.511,-10947.86,512
2.001953,-5685.801,-10904.56,512
2.003906,-5703.838,-10841.99,512
2.005859,-5698.03,-10796.85,512
2.007812,-5703.334,-10814.93,512
2.009766,-5713.792,-10820.17,512
2.011719,-5713.729,-10811.11,512
2.013672,-5711.184,-10831.21,512
2.015625,-5700.612,-10857.89,512
2.017578,-5688.597,-10886.63,512
2.019531,-5688.234,-10881.94,512
2.021484,-5703.478,-10868.72,512
2.023438,-5700.547,-10843.5,512
2.025391,-5711.39,-10807.33,512
2.027344,-5721.29,-10820.75,512
2.029297,-5710.419,-10843.41,512
2.03125,-5698.993,-10839.06,512
2.033203,-5702.94,-10824.33,512
2.035156,-5700.553,-10842.51,512
2.037109,-5693.879,-10835.74,512
2.039062,-5689.542,-10842.93,512
2.041016,-5682.929,-10841.41,512
2.042969,-5681.693,-10836.43,512
2.044922,-5696.362,-10837.52,512
2.046875,-5697.172,-10828.89,512
2.048828,-5685.587,-10839.17,512
2.050781,-5685.049,-10838.56,512
2.052734,-5677.703,-10845.14,512
2.054688,-5686.888,-10852.84,512
2.056641,-5709.854,-10862.73,512
2.058594,-5711.518,-10830.71,512
2.060547,-5699.397,-10837.89,512
2.0625,-5718.128,-10859.12,512
2.064453,-5711.615,-10844.6,512
2.066406,-5694.717,-10850.59,512
2.068359,-5701.03,-10857.6,512
2.070312,-5710.385,-10844.54,512
2.072266,-5699.353,-10841,512
2.074219,-5687.245,-10826.03,512
2.076172,-5691.447,-10834.81,512
2.078125,-5705.99,-10846.9,512
2.080078,-5687.534,-10851.66,512
2.082031,-5692.373,-10872.45,512
2.083984,-5690.042,-10879.25,512
2.085938,-5669.413,-10854.03,512
2.087891,-5691.756,-10865.94,512
2.089844,-5709.079,-10866.83,512
2.091797,-5691.698,-10857.33,512
2.09375,-5671.734,-10876.16,512
2.095703,-5682.225,-10829.29,512
2.097656,-5697.135,-10825.39,512
2.099609,-5712.141,-10844.42,512
2.101562,-5704.78,-10842.29,512
2.103516,-5681.927,-10814.24,512
2.105469,-5698.95,-10807.64,512
2.107422,-5703.76,-10819.76,512
2.109375,-5702.224,-10856.64,512
2.111328,-5681.875,-10870.76,512
2.113281,-5679.234,-10895.23,512
2.115234,-5668.761,-10872.98,512
2.117188,-5665.965,-10844.79,512
2.119141,-5704.721,-10821,512
2.121094,-5715.852,-10796.99,512
2.123047,-5705.894,-10815.37,512
2.125,-5709.872,-10799.94,512
2.126953,-5702.334,-10803.08,512
2.128906,-5710.229,-10829.54,512
2.130859,-5699.712,-10833.27,512
2.132812,-5696.021,-10842.23,512
2.134766,-5706.431,-10843.53,512
2.136719,-5714.085,-10848.61,512
2.138672,-5701.543,-10845.23,512
2.140625,-5709.955,-10834.94,512
2.142578,-5703.731,-10834.81,512
2.144531,-5692.59,-10855.76,512
2.146484,-5684.869,-10862.61,512
2.148438,-5699.102,-10877.72,512
2.150391,-5689.876,-10868.54,512
2.152344,-5685.649,-10824.04,512
2.154297,-5703.632,-10829.4,512
2.15625,-5700.813,-10847.88,512
2.158203,-5687.735,-10830.56,512
2.160156,-5684.744,-10811.73,512
2.162109,-5695.094,-10815.56,512
2.164062,-5700.37,-10828.47,512
2.166016,-5714.4,-10855.07,512
2.167969,-5698.388,-10838.75,512
2.169922,-5680.271,-10820.05,512
2.171875,-5684.334,-10840.6,512
2.173828,-5673.155,-10851.65,512
2.175781,-5680.632,-10863.51,512
2.177734,-5686.489,-10877.67,512
2.179688,-5692.707,-10829.59,512
2.181641,-5703.478,-10843.8,512
2.183594,-5698.832,-10845.72,512
2.185547,-5677.878,-10825.46,512
2.1875,-5685.149,-10836.21,512
2.189453,-5694.756,-10842.45,512
2.191406,-5714.89,-10841.88,512
2.193359,-5704.113,-10835.54,512
2.195312,-5689.293,-10886.74,512
2.197266,-5683.786,-10911.63,512
2.199219,-5680.116,-10892.27,512
2.201172,-5675.228,-10860.44,512
2.203125,-5674.633,-10835.87,512
2.205078,-5691.96,-10814.96,512
2.207031,-5708.48,-10777.08,512
2.208984,-5705.288,-10796.83,512
2.210938,-5709.207,-10821.35,512
2.212891,-5702.596,-10842.65,512
2.214844,-5703.47,-10845.71,512
2.216797,-5704.733,-10838.12,512
2.21875,-5703.799,-10828.28,512
2.220703,-5705.632,-10835.78,512
2.222656,-5688.792,-10825.65,512
2.224609,-5682.089,-10852.07,512
2.226562,-5695.895,-10846.19,512
2.228516,-5691.837,-10837.41,512
2.230469,-5695.364,-10834.52,512
2.232422,-5705.743,-10832.41,512
2.234375,-5703.159,-10840.71,512
2.236328,-5703.291,-10852.8,512
2.238281,-5690.206,-10833.2,512
2.240234,-5693.622,-10843.73,512
2.242188,-5701.255,-10873.51,512
2.244141,-5696.491,-10873.28,512
2.246094,-5708.114,-10847.67,512
2.248047,-5714.257,-10832.62,512
2.25,-5697.661,-10826.83,512
2.251953,-5686.28,-10850.28,512
2.253906,-5692.056,-10845.42,512
2.255859,-5695.34,-10845.98,512
2.257812,-5706.545,-10845.23,512
2.259766,-5709.377,-10841.86,512
2.261719,-5709.789,-10846.26,512
2.263672,-5713.291,-10831.49,512
2.265625,-5695.589,-10845.2,512
2.267578,-5692.92,-10836.52,512
2.269531,-5692.96,-10828.51,512
2.271484,-5678.651,-10824.71,512
2.273438,-5682.392,-10810.77,512
2.275391,-5690.715,-10828.44,512
2.277344,-5688.876,-10831.17,512
2.279297,-5693.787,-10837.26,512
2.28125,-5699.725,-10847.48,512
2.283203,-5697.427,-10869.1,512
2.285156,-5675.623,-10850.02,512
2.287109,-5684.167,-10821.81,512
2.289062,-5698.218,-10860.29,512
2.291016,-5688.237,-10863.67,512
2.292969,-5674.509,-10846.17,512
2.294922,-5704.078,-10874.51,512
2.296875,-5714.603,-10873.22,512
2.298828,-5696.277,-10833.59,512
2.300781,-5688.422,-10816.78,512
2.302734,-5697.88,-10831.85,512
2.304688,-5708.825,-10845.52,512
2.306641,-5696.584,-10839.58,512
2.308594,-5705.808,-10844.2,512
2.310547,-5714.534,-10854.01,512
2.3125,-5700.676,-10875.11,512
2.314453,-5700.157,-10880.17,512
2.316406,-5698.548,-10859.05,512
2.318359,-5692.277,-10855.36,512
2.320312,-5692.076,-10865.18,512
2.322266,-5688.285,-10829.96,512
2.324219,-5693.643,-10835.78,512
2.326172,-5686.413,-10870.24,512
2.328125,-5680.55,-10853.96,512
2.330078,-5685.573,-10863.75,512
2.332031,-5689.006,-10897.57,512
2.333984,-5695.392,-10926.92,512
2.335938,-5692.746,-10875.84,512
2.337891,-5691.84,-10843.28,512
2.339844,-5710.199,-10844.1,512
2.341797,-5711.226,-10823.36,512
2.34375,-5696.958,-10813.52,512
2.345703,-5711.285,-10828.15,512
2.347656,-5699.021,-10820.44,512
2.349609,-5702.902,-10821.08,512
2.351562,-5699.048,-10841.23,512
2.353516,-5694.532,-10844.52,512
2.355469,-5690.52,-10866.82,512
2.357422,-5690.917,-10850.66,512
2.359375,-5699.781,-10855.33,512
2.361328,-5695.275,-10838.49,512
2.363281,-5704.514,-10838.95,512
2.365234,-5717.095,-10845.64,512
2.367188,-5708.698,-10841.31,512
2.369141,-5699.723,-10837.88,512
2.371094,-5695.001,-10816.69,512
2.373047,-5703.077,-10827.93,512
2.375,-5707.066,-10830.49,512
2.376953,-5712.832,-10856.53,512
2.378906,-5713.752,-10874.44,512
2.380859,-5714.74,-10872.16,512
2.382812,-5713.104,-10866.07,512
2.384766,-5709.814,-10856.8,512
2.386719,-5700.195,-10859.36,512
2.388672,-5683.45,-10842.93,512
2.390625,-5692.733,-10860.85,512
2.392578,-5696.784,-10889.5,512
2.394531,-5687.38,-10867.93,512
2.396484,-5695.485,-10864.69,512
2.398438,-5687.917,-10846.35,512
2.400391,-5695.437,-10840.23,512
2.402344,-5709.26,-10836.8,512
2.404297,-5693.285,-10840.23,512
2.40625,-5686.858,-10847.25,512
2.408203,-5681.598,-10859.52,512
2.410156,-5677.458,-10848.75,512
2.412109,-5667.989,-10860.21,512
2.414062,-5668.81,-10843.17,512
2.416016,-5680.897,-10867.01,512
2.417969,-5678.657,-10868.71,512
2.419922,-5671.928,-10858.2,512
2.421875,-5674.571,-10857.42,512
2.423828,-5680.116,-10880.25,512
2.425781,-5688.954,-10886.73,512
2.427734,-5702.371,-10863.88,512
2.429688,-5701.827,-10865.39,512
2.431641,-5694.178,-10862.55,512
2.433594,-5697.813,-10858.45,512
2.435547,-5696.919,-10865.94,512
2.4375,-5704.228,-10879,512
2.439453,-5704.636,-10873.36,512
2.441406,-5698.699,-10837.56,512
2.443359,-5695.349,-10850,512
2.445312,-5700.269,-10852.85,512
2.447266,-5714.483,-10861.09,512
2.449219,-5725.478,-10863.74,512
2.451172,-5722.434,-10857.35,512
2.453125,-5701.74,-10846.61,512
2.455078,-5728.108,-10845.61,512
2.457031,-5717.449,-10838.73,512
2.458984,-5716.978,-10844.33,512
2.460938,-5722.347,-10840.45,512
2.462891,-5725.891,-10852.1,512
2.464844,-5727.629,-10872.63,512
2.466797,-5724.584,-10869.41,512
2.46875,-5714.794,-10832.39,512
2.470703,-5713.29,-10835.13,512
2.472656,-5729.996,-10842.98,512
2.474609,-5732.021,-10841.16,512
2.476562,-5718.353,-10838.1,512
2.478516,-5721.153,-10854.41,512
2.480469,-5719.586,-10864.59,512
2.482422,-5721.022,-10867.2,512
2.484375,-5707.588,-10840.34,512
2.486328,-5706.909,-10851.38,512
2.488281,-5718.802,-10862.31,512
2.490234,-5716.057,-10849.84,512
2.492188,-5712.326,-10865.14,512
2.494141,-5706.366,-10878.81,512
2.496094,-5711.637,-10834.33,512
2.498047,-5713.156,-10830.79,512
2.5,-5700.776,-10836.66,512
2.501953,-5706.238,-10858.74,512
2.503906,-5725.148,-10872.83,512
2.505859,-5708.142,-10897.73,512
2.507812,-5690.255,-10876.23,512
2.509766,-5688.184,-10853.41,512
2.511719,-5697.176,-10862.91,512
2.513672,-5723.673,-10863.53,512
2.515625,-5713.729,-10834.59,512
2.517578,-5705.843,-10811.25,512
2.519531,-5687.575,-10818.58,512
2.521484,-5688.341,-10818.26,512
2.523438,-5676.936,-10816.53,512
2.525391,-5670.616,-10815.25,512
2.527344,-5669.134,-10833.78,512
2.529297,-5650.477,-10860.41,512
2.53125,-5615.525,-10873.18,512
2.533203,-5597.254,-10820.41,512
2.535156,-5594.98,-10841.31,512
2.537109,-5605.487,-10877.37,512
2.539062,-5596.993,-10914.53,512
2.541016,-5590.906,-10917.77,512
2.542969,-5600.886,-10912.77,512
2.544922,-5603.3,-10934.21,512
2.546875,-5611.524,-10930.93,512
2.548828,-5648.676,-10929.66,512
2.550781,-5680.581,-10910.36,512
2.552734,-5706.556,-10929.18,512
2.554688,-5711.197,-10929.95,512
2.556641,-5720.266,-10937.1,512
2.558594,-5718.888,-10924.85,512
2.560547,-5708.142,-10923.15,512
2.5625,-5735.089,-10932.89,512
2.564453,-5749.695,-10913.8,512
2.566406,-5768.611,-10896.36,512
2.568359,-5798.667,-10886.59,512
2.570312,-5804.862,-10827.53,512
2.572266,-5820.424,-10798.96,512
2.574219,-5830.758,-10819.65,512
2.576172,-5806.348,-10833.06,512
2.578125,-5779.278,-10826.27,512
2.580078,-5767.99,-10854.69,512
2.582031,-5740.387,-10857.58,512
2.583984,-5725.758,-10847.34,512
2.585938,-5723.138,-10850.38,512
2.587891,-5707.879,-10833.34,512
2.589844,-5687.108,-10830.35,512
2.591797,-5693.976,-10849.45,512
2.59375,-5698.754,-10877.25,512
2.595703,-5688.545,-10853.57,512
2.597656,-5682.453,-10868.94,512
2.599609,-5688.453,-10861.27,512
2.601562,-5704.647,-10855.17,512
2.603516,-5701.73,-10860.9,512
2.605469,-5690.481,-10837.37,512
2.607422,-5701.946,-10840.8,512
2.609375,-5693.278,-10850.48,512
2.611328,-5691.658,-10842.51,512
2.613281,-5691.959,-10868.16,512
2.615234,-5693.227,-10885.62,512
2.617188,-5696.874,-10883.31,512
2.619141,-5688.353,-10881.46,512
2.621094,-5683.809,-10893.11,512
2.623047,-5662.343,-10845.72,512
2.625,-5668.399,-10806.94,512
2.626953,-5673.113,-10842.32,512
2.628906,-5683.288,-10853.19,512
2.630859,-5674.631,-10813.21,512
2.632812,-5689.44,-10829.39,512
2.634766,-5690.216,-10842.52,512
2.636719,-5695.774,-10848.73,512
2.638672,-5674.711,-10842.98,512
2.640625,-5662.986,-10882.05,512
2.642578,-5666.478,-10869.66,512
2.644531,-5660.928,-10869.76,512
2.646484,-5686.013,-10823.96,512
2.648438,-5686.768,-10789.5,512
2.650391,-5668.022,-10802.76,512
2.652344,-5675.762,-10826.49,512
2.654297,-5677.94,-10832.37,512
2.65625,-5685.462,-10828.12,512
2.658203,-5669.103,-10829.92,512
2.660156,-5672.292,-10830.43,512
2.662109,-5679.278,-10845.73,512
2.664062,-5687.892,-10862.18,512
2.666016,-5683.283,-10866.3,512
2.667969,-5676.51,-10866.44,512
2.669922,-5675.271,-10870.33,512
2.671875,-5666.801,-10845.65,512
2.673828,-5675.631,-10853.86,512
2.675781,-5662.247,-10842.76,512
2.677734,-5661.252,-10853.54,512
2.679688,-5656.018,-10853.53,512
2.681641,-5655.159,-10837.09,512
2.683594,-5656.835,-10865.76,512
2.685547,-5667.954,-10869.93,512
2.6875,-5668.453,-10879.59,512
2.689453,-5661.488,-10888.09,512
2.691406,-5648.661,-10884.19,512
2.693359,-5667.194,-10915.35,512
2.695312,-5669.058,-10903.63,512
2.697266,-5661.798,-10887.26,512
2.699219,-5676.067,-10858.57,512
2.701172,-5679.158,-10833.56,512
2.703125,-5652.149,-10855.32,512
2.705078,-5651.695,-10846.41,512
2.707031,-5665.786,-10844.76,512
2.708984,-5662.106,-10839.85,512
2.710938,-5639.311,-10851.08,512
2.712891,-5637.323,-10891.27,512
2.714844,-5639.356,-10922.93,512
2.716797,-5637.449,-10915.74,512
2.71875,-5645.109,-10853.1,512
2.720703,-5654.864,-10849.36,512
2.722656,-5646.227,-10837.73,512
2.724609,-5636.437,-10859.05,512
2.726562,-5625.241,-10846.23,512
2.728516,-5618.582,-10826.11,512
2.730469,-5628.031,-10856.34,512
2.732422,-5628.901,-10864.72,512
2.734375,-5612.934,-10865.03,512
2.736328,-5617.385,-10899.72,512
2.738281,-5608.788,-10919.07,512
2.740234,-5611.551,-10883.4,512
2.742188,-5607.274,-10851.24,512
2.744141,-5607.45,-10841.56,512
2.746094,-5606.25,-10848.83,512
2.748047,-5609.537,-10869.96,512
2.75,-5601.077,-10873.25,512
2.751953,-5593.997,-10872.35,512
2.753906,-5592.007,-10875.26,512
2.755859,-5590.128,-10879.48,512
2.757812,-5583.554,-10882.98,512
2.759766,-5574.627,-10862.04,512
2.761719,-5574.091,-10892.04,512
2.763672,-5561.029,-10923.02,512
2.765625,-5561.994,-10944.37,512
2.767578,-5567.858,-10950.31,512
2.769531,-5555.818,-10878.44,512
2.771484,-5557.229,-10830.84,512
2.773438,-5560.598,-10847.73,512
2.775391,-5560.593,-10844.15,512
2.777344,-5559.974,-10851.84,512
2.779297,-5558.873,-10879.65,512
2.78125,-5562.92,-10906.5,512
2.783203,-5569.864,-10916.01,512
2.785156,-5559.133,-10897.56,512
2.787109,-5557.678,-10887.56,512
2.789062,-5568.785,-10884.97,512
2.791016,-5572.998,-10878.35,512
2.792969,-5599.901,-10853.51,512
2.794922,-5593.387,-10845.69,512
2.796875,-5582.314,-10869.41,512
2.798828,-5594.339,-10876.66,512
2.800781,-5602.843,-10886.66,512
2.802734,-5611.579,-10909.86,512
2.804688,-5616.482,-10887.05,512
2.806641,-5629.5,-10847.25,512
2.808594,-5638.189,-10854.92,512
2.810547,-5638.208,-10908.5,512
2.8125,-5639.836,-10869.05,512
2.814453,-5651.389,-10907.23,512
2.816406,-5644.574,-10920.28,512
2.818359,-5649.816,-10920.49,512
2.820312,-5664.817,-10958.06,512
2.822266,-5669.001,-10898.75,512
2.824219,-5666.599,-10851.89,512
2.826172,-5674.426,-10829.56,512
2.828125,-5698.363,-10826.27,512
2.830078,-5691.321,-10852.1,512
2.832031,-5702.58,-10823.59,512
2.833984,-5707.999,-10822.34,512
2.835938,-5689.667,-10819.89,512
2.837891,-5692.773,-10822.41,512
2.839844,-5692.711,-10842.98,512
2.841797,-5687.85,-10830.05,512
2.84375,-5695.648,-10849.19,512
2.845703,-5709.396,-10833.68,512
2.847656,-5710.43,-10828.95,512
2.849609,-5708.564,-10870.44,512
2.851562,-5696.544,-10864.79,512
2.853516,-5690.961,-10858.46,512
2.855469,-5694.424,-10859.99,512
2.857422,-5706.615,-10863.02,512
2.859375,-5713.276,-10892.55,512
2.861328,-5714.276,-10860.24,512
2.863281,-5708.148,-10829.61,512
2.865234,-5699.366,-10824.93,512
2.867188,-5711.45,-10834.23,512
2.869141,-5706.969,-10852.97,512
2.871094,-5703.056,-10862.61,512
2.873047,-5696.623,-10865.83,512
2.875,-5698.803,-10865.89,512
2.876953,-5705.958,-10838.73,512
2.878906,-5713.588,-10871.54,512
2.880859,-5707.41,-10876.83,512
2.882812,-5715.595,-10846.37,512
2.884766,-5726.693,-10853.34,512
2.886719,-5730.428,-10836.41,512
2.888672,-5725.835,-10838.56,512
2.890625,-5715.021,-10824,512
2.892578,-5709.286,-10844.9,512
2.894531,-5699.514,-10858.92,512
2.896484,-5706.516,-10834.63,512
2.898438,-5705.56,-10861.4,512
2.900391,-5710.889,-10878.08,512
2.902344,-5698.719,-10871.72,512
2.904297,-5694.872,-10906.83,512
2.90625,-5699.77,-10888.54,512
2.908203,-5692.801,-10880.37,512
2.910156,-5701.013,-10852.2,512
2.912109,-5713.359,-10823.01,512
2.914062,-5713.259,-10821.34,512
2.916016,-5714.443,-10825.12,512
2.917969,-5704.854,-10830.97,512
2.919922,-5709.731,-10830.29,512
2.921875,-5696.047,-10818.77,512
2.923828,-5696.929,-10821.35,512
2.925781,-5704.761,-10837.36,512
2.927734,-5696.871,-10838.05,512
2.929688,-5695.619,-10842.71,512
2.931641,-5706.281,-10851.55,512
2.933594,-5703.424,-10857.9,512
2.935547,-5709.206,-10888.79,512
2.9375,-5702.304,-10883.44,512
2.939453,-5688.927,-10905.01,512
2.941406,-5691.618,-10908.95,512
2.943359,-5692.827,-10884.61,512
2.945312,-5701.636,-10878.63,512
2.947266,-5713.061,-10832.38,512
2.949219,-5722.49,-10803.59,512
2.951172,-5702.527,-10808.52,512
2.953125,-5720.057,-10832.77,512
2.955078,-5704.342,-10842.4,512
2.957031,-5703.094,-10843.34,512
2.958984,-5693.869,-10845.54,512
2.960938,-5703.714,-10820.41,512
2.962891,-5716.84,-10823.5,512
2.964844,-5712.765,-10850.39,512
2.966797,-5738.823,-10884.48,512
2.96875,-5714.058,-10868.07,512
2.970703,-5723.201,-10842.75,512
2.972656,-5703.737,-10860.86,512
2.974609,-5686.153,-10869.77,512
2.976562,-5696.811,-10827.51,512
2.978516,-5706.856,-10886.73,512
2.980469,-5687.041,-10865.64,512
2.982422,-5700.083,-10852.55,512
2.984375,-5725.431,-10879.74,512
2.986328,-5727.692,-10861.9,512
2.988281,-5709.973,-10831.48,512
2.990234,-5709.689,-10850.24,512
2.992188,-5707.753,-10829.51,512
2.994141,-5701.863,-10836.8,512
2.996094,-5722.164,-10853.38,512
2.998047,-5721.989,-10870.92,512
3,-5701.674,-10868.2,512
3.001953,-5685.399,-10861.28,512
3.003906,-5692.401,-10858.5,512
3.005859,-5697.292,-10825.82,512
3.007812,-5708.5,-10807.62,512
3.009766,-5711.016,-10820.97,512
3.011719,-5699.042,-10831.59,512
3.013672,-5702.166,-10833.74,512
3.015625,-5713.559,-10875.11,512
3.017578,-5694.067,-10843.45,512
3.019531,-5691.432,-10829.82,512
3.021484,-5689.53,-10864.83,512
3.023438,-5698.008,-10872.69,512
3.025391,-5685.19,-10855.28,512
3.027344,-5675.178,-10867.65,512
3.029297,-5699.628,-10854.21,512
3.03125,-5712.804,-10827.29,512
3.033203,-5704.026,-10829.03,512
3.035156,-5709.489,-10822.33,512
3.037109,-5707.506,-10831.14,512
3.039062,-5700.564,-10832.32,512
3.041016,-5687.413,-10839.53,512
3.042969,-5694.153,-10862.11,512
3.044922,-5705.534,-10886.13,512
3.046875,-5695.535,-10896.1,512
3.048828,-5686.152,-10893.01,512
3.050781,-5689.959,-10864.91,512
3.052734,-5707.242,-10837.72,512
3.054688,-5714.097,-10851.61,512
3.056641,-5697.871,-10872.94,512
3.058594,-5690.22,-10837.72,512
3.060547,-5695.478,-10846.7,512
3.0625,-5705.082,-10859.54,512
3.064453,-5691.33,-10803.7,512
3.066406,-5708.998,-10806.2,512
3.068359,-5710.058,-10819.58,512
3.070312,-5707.125,-10829.9,512
3.072266,-5713.733,-10823.97,512
3.074219,-5708.133,-10836.46,512
3.076172,-5704.921,-10827.59,512
3.078125,-5696.676,-10850.71,512
3.080078,-5698.571,-10895.17,512
3.082031,-5691.369,-10903.79,512
3.083984,-5687.133,-10899.1,512
3.085938,-5693.039,-10898.8,512
3.087891,-5695.02,-10871.58,512
3.089844,-5707.985,-10870.5,512
3.091797,-5701.717,-10832.63,512
3.09375,-5727.707,-10834.78,512
3.095703,-5720.047,-10811.6,512
3.097656,-5719.856,-10820.05,512
3.099609,-5722.211,-10847.05,512
3.101562,-5709.703,-10839.17,512
3.103516,-5722.142,-10846.13,512
3.105469,-5724.771,-10858.09,512
3.107422,-5706.013,-10859.94,512
3.109375,-5704.558,-10868.89,512
3.111328,-5703.484,-10868.94,512
3.113281,-5688.004,-10893.12,512
3.115234,-5712.418,-10903.47,512
3.117188,-5713.583,-10871.18,512
3.119141,-5707.051,-10816.19,512
3.121094,-5715.543,-10805.21,512
3.123047,-5716.213,-10825.03,512
3.125,-5721.496,-10835.15,512
3.126953,-5709.555,-10845.12,512
3.128906,-5710.195,-10854.46,512
3.130859,-5717.579,-10877.56,512
3.132812,-5711.317,-10867.33,512
3.134766,-5716.619,-10869.91,512
3.136719,-5710.637,-10856.8,512
3.138672,-5716.912,-10863.79,512
3.140625,-5727.97,-10872.56,512
3.142578,-5726.023,-10862.01,512
3.144531,-5722.371,-10868.52,512
3.146484,-5712.759,-10871.97,512
3.148438,-5706.227,-10861.98,512
3.150391,-5706.645,-10858.7,512
3.152344,-5709.357,-10862.73,512
3.154297,-5708.855,-10869.7,512
3.15625,-5699.057,-10865.23,512
3.158203,-5702.007,-10853.43,512
3.160156,-5719.525,-10863.25,512
3.162109,-5722.55,-10866.25,512
3.164062,-5717.784,-10857.66,512
3.166016,-5729.38,-10887.49,512
3.167969,-5709.868,-10872.25,512
3.169922,-5692.752,-10880.48,512
3.171875,-5692.174,-10857.46,512
3.173828,-5701.017,-10854.24,512
3.175781,-5705.768,-10849.63,512
3.177734,-5702.087,-10843.49,512
3.179688,-5714.608,-10854.42,512
3.181641,-5698.861,-10890.66,512
3.183594,-5695.388,-10903.5,512
3.185547,-5699.906,-10883.75,512
3.1875,-5696.488,-10866.34,512
3.189453,-5694.84,-10845.87,512
3.191406,-5700.733,-10837.68,512
3.193359,-5715.783,-10806.06,512
3.195312,-5711.892,-10809.52,512
3.197266,-5715.218,-10828.36,512
3.199219,-5706.363,-10843.57,512
3.201172,-5695.778,-10857.72,512
3.203125,-5701.56,-10864.9,512
3.205078,-5694.004,-10865.71,512
3.207031,-5693.557,-10838.01,512
3.208984,-5707.716,-10832.68,512
3.210938,-5713.081,-10831.74,512
3.212891,-5735.511,-10847.56,512
3.214844,-5704.627,-10832.21,512
3.216797,-5709.258,-10838.45,512
3.21875,-5724.091,-10849.64,512
3.220703,-5706.983,-10845.38,512
3.222656,-5699.11,-10832.9,512
3.224609,-5698.651,-10838.47,512
3.226562,-5705.044,-10850.5,512
3.228516,-5692.237,-10844.69,512
3.230469,-5693.945,-10858.91,512
3.232422,-5707.533,-10872.46,512
3.234375,-5703.777,-10848.25,512
3.236328,-5711.954,-10844.49,512
3.238281,-5732.898,-10850.59,512
3.240234,-5721.105,-10848.58,512
3.242188,-5707.922,-10854.01,512
3.244141,-5697.016,-10845.02,512
3.246094,-5695.866,-10838.56,512
3.248047,-5693.486,-10851.66,512
3.25,-5697.162,-10877.13,512
3.251953,-5699.756,-10881.19,512
3.253906,-5700.242,-10882.94,512
3.255859,-5714.505,-10864.52,512
3.257812,-5687.448,-10825.22,512
3.259766,-5689.208,-10814.9,512
3.261719,-5699.216,-10831.32,512
3.263672,-5695.691,-10839.56,512
3.265625,-5675.708,-10835.7,512
3.267578,-5693.964,-10861.55,512
3.269531,-5695.062,-10853.26,512
3.271484,-5681.861,-10854.74,512
3.273438,-5675.087,-10876.8,512
3.275391,-5658.279,-10859.34,512
3.277344,-5662.724,-10869.04,512
3.279297,-5678.383,-10867.39,512
3.28125,-5690.728,-10852.4,512
3.283203,-5699.834,-10852.07,512
3.285156,-5671.849,-10837.79,512
3.287109,-5683.609,-10805.19,512
3.289062,-5685.95,-10807.67,512
3.291016,-5681.633,-10847,512
3.292969,-5682.419,-10871.24,512
3.294922,-5688.466,-10903.33,512
3.296875,-5687.232,-10921.5,512
3.298828,-5701.987,-10881.3,512
3.300781,-5693.43,-10890.35,512
3.302734,-5668.019,-10883.21,512
3.304688,-5677.744,-10841.57,512
3.306641,-5683.013,-10849.02,512
3.308594,-5680.882,-10856.39,512
3.310547,-5685.336,-10855.56,512
3.3125,-5682.094,-10870.59,512
3.314453,-5682.223,-10872.19,512
3.316406,-5674.268,-10862.79,512
3.318359,-5683.696,-10871.45,512
3.320312,-5705.552,-10880.17,512
3.322266,-5698.794,-10853.74,512
3.324219,-5706.241,-10850.13,512
3.326172,-5691.38,-10864.77,512
3.328125,-5682.401,-10832.19,512
3.330078,-5694.336,-10850.43,512
3.332031,-5702.069,-10858.34,512
3.333984,-5694.389,-10842.26,512
3.335938,-5693.409,-10852.07,512
3.337891,-5702.779,-10851.2,512
3.339844,-5691.169,-10848.31,512
3.341797,-5698.249,-10853.56,512
3.34375,-5693.623,-10837.38,512
3.345703,-5689.463,-10847.02,512
3.347656,-5692.753,-10860.71,512
3.349609,-5701.584,-10896.96,512
3.351562,-5695.138,-10871.06,512
3.353516,-5686.074,-10871.04,512
3.355469,-5687.885,-10901.85,512
3.357422,-5696.044,-10906.11,512
3.359375,-5696.741,-10876.81,512
3.361328,-5693.469,-10809.5,512
3.363281,-5702.735,-10836.51,512
3.365234,-5711.017,-10865.81,512
3.367188,-5699.157,-10879.36,512
3.369141,-5688.749,-10908.23,512
3.371094,-5694.153,-10861.55,512
3.373047,-5701.745,-10815.12,512
3.375,-5686.351,-10835.02,512
3.376953,-5697.887,-10808.95,512
3.378906,-5701.017,-10806.4,512
3.380859,-5705.894,-10823.05,512
3.382812,-5703.571,-10848.42,512
3.384766,-5695.317,-10860.33,512
3.386719,-5702.4,-10842.22,512
3.388672,-5683.222,-10879.92,512
3.390625,-5689.882,-10897.31,512
3.392578,-5687.693,-10878.92,512
3.394531,-5684.489,-10862.78,512
3.396484,-5696.681,-10847.16,512
3.398438,-5698.35,-10818.55,512
3.400391,-5694.143,-10815.26,512
3.402344,-5699.989,-10824.29,512
3.404297,-5692.542,-10824.09,512
3.40625,-5688.345,-10827.49,512
3.408203,-5691.443,-10836.67,512
3.410156,-5686.461,-10842.02,512
3.412109,-5674.013,-10846.29,512
3.414062,-5675.924,-10854.52,512
3.416016,-5678.001,-10853.84,512
3.417969,-5659.497,-10840.56,512
3.419922,-5638.382,-10834.02,512
3.421875,-5622.918,-10831.64,512
3.423828,-5610.705,-10839.32,512
3.425781,-5601.996,-10862.56,512
3.427734,-5582.056,-10860.15,512
3.429688,-5595.506,-10889.91,512
3.431641,-5587.642,-10906.31,512
3.433594,-5573.3,-10917.47,512
3.435547,-5566.453,-10927.99,512
3.4375,-5572.808,-10917.85,512
3.439453,-5568.694,-10915.72,512
3.441406,-5593.621,-10918.83,512
3.443359,-5631.497,-10909.53,512
3.445312,-5664.673,-10924.74,512
3.447266,-5682.306,-10943.07,512
3.449219,-5694.066,-10958.14,512
3.451172,-5691.215,-10975.14,512
3.453125,-5706.871,-10968.68,512
3.455078,-5702.674,-10972.21,512
3.457031,-5714.988,-10909.62,512
3.458984,-5736.491,-10888.27,512
3.460938,-5754.804,-10926.96,512
3.462891,-5782.22,-10909.66,512
3.464844,-5801.527,-10875.84,512
3.466797,-5807.943,-10846.92,512
3.46875,-5798.009,-10850.41,512
3.470703,-5776.679,-10840.37,512
3.472656,-5754.229,-10844.24,512
3.474609,-5727.153,-10883.8,512
3.476562,-5713.043,-10856.44,512
3.478516,-5702.167,-10859.3,512
3.480469,-5687.95,-10861.69,512
3.482422,-5686.79,-10821.8,512
3.484375,-5700.261,-10819.77,512
3.486328,-5688.027,-10820.99,512
3.488281,-5678.333,-10828.74,512
3.490234,-5693.769,-10844.83,512
3.492188,-5678.983,-10842.4,512
3.494141,-5678.662,-10839.97,512
3.496094,-5667.84,-10838.22,512
3.498047,-5670.927,-10849.13,512
3.5,-5664.217,-10833.77,512
3.501953,-5661.574,-10829.91,512
3.503906,-5660.696,-10839.96,512
3.505859,-5667.779,-10833.84,512
3.507812,-5673.082,-10831.49,512
3.509766,-5674.457,-10835.59,512
3.511719,-5658.05,-10826.75,512
3.513672,-5651.824,-10836.24,512
3.515625,-5654.33,-10836.42,512
3.517578,-5667.679,-10847.01,512
3.519531,-5652.317,-10845.54,512
3.521484,-5650.373,-10860.74,512
3.523438,-5661.093,-10880.62,512
3.525391,-5647.716,-10850.51,512
3.527344,-5648.411,-10830.99,512
3.529297,-5650.824,-10829.76,512
3.53125,-5661.674,-10850.48,512
3.533203,-5655.138,-10851.61,512
3.535156,-5652.759,-10845.65,512
3.537109,-5640.542,-10852.14,512
3.539062,-5638.934,-10844.4,512
3.541016,-5655.678,-10847.72,512
3.542969,-5645.473,-10833.05,512
3.544922,-5645.225,-10818.37,512
3.546875,-5630.501,-10849.37,512
3.548828,-5635.831,-10852.75,512
3.550781,-5635.618,-10855.28,512
3.552734,-5630.618,-10872.58,512
3.554688,-5632.401,-10908.04,512
3.556641,-5635.706,-10893.47,512
3.558594,-5614.52,-10879.86,512
3.560547,-5634.934,-10837.33,512
3.5625,-5656.139,-10786.81,512
3.564453,-5668.809,-10810.9,512
3.566406,-5663.12,-10813.38,512
3.568359,-5645.23,-10835.74,512
3.570312,-5646.867,-10858.59,512
3.572266,-5647.905,-10831.11,512
3.574219,-5640.668,-10836.88,512
3.576172,-5626.312,-10841.04,512
3.578125,-5626.922,-10857.42,512
3.580078,-5647.851,-10882.02,512
3.582031,-5641.698,-10889.94,512
3.583984,-5639.711,-10880.75,512
3.585938,-5649.231,-10837.2,512
3.587891,-5662.576,-10822.28,512
3.589844,-5629.031,-10815.99,512
3.591797,-5619.209,-10846.14,512
3.59375,-5623.81,-10842.93,512
3.595703,-5630.526,-10834.72,512
3.597656,-5630.206,-10849.43,512
3.599609,-5622.718,-10848.49,512
3.601562,-5619.721,-10859.58,512
3.603516,-5625.811,-10865.9,512
3.605469,-5614.583,-10849.03,512
3.607422,-5599.351,-10845.74,512
3.609375,-5597.813,-10846.92,512
3.611328,-5613.258,-10858.98,512
3.613281,-5623.093,-10871.19,512
3.615234,-5617.515,-10882.05,512
3.617188,-5612.4,-10872,512
3.619141,-5607.157,-10880.62,512
3.621094,-5590.875,-10871.21,512
3.623047,-5584.015,-10884.31,512
3.625,-5578.21,-10888.03,512
3.626953,-5569.542,-10906.31,512
3.628906,-5594.733,-10877.48,512
3.630859,-5587.834,-10853.61,512
3.632812,-5578.897,-10863.71,512
3.634766,-5580.393,-10851.14,512
3.636719,-5575.996,-10848.82,512
3.638672,-5589.667,-10868.58,512
3.640625,-5596.36,-10865.23,512
3.642578,-5576.11,-10864.28,512
3.644531,-5565.72,-10881.97,512
3.646484,-5562.812,-10888.35,512
3.648438,-5548.023,-10861.9,512
3.650391,-5553.411,-10873.73,512
3.652344,-5551.249,-10880.41,512
3.654297,-5550.789,-10886.99,512
3.65625,-5547.638,-10910.66,512
3.658203,-5548.491,-10927.32,512
3.660156,-5552.007,-10913.41,512
3.662109,-5526.074,-10910.55,512
3.664062,-5508.024,-10965.83,512
3.666016,-5544.348,-10881.69,512
3.667969,-5540.896,-10935.26,512
3.669922,-5544.832,-10959.15,512
3.671875,-5546.961,-10886.22,512
3.673828,-5539.837,-10853.64,512
3.675781,-5546.145,-10821.88,512
3.677734,-5550.247,-10821.3,512
3.679688,-5554.2,-10851.34,512
3.681641,-5551.333,-10851.34,512
3.683594,-5541.648,-10858.91,512
3.685547,-5560.611,-10863.13,512
3.6875,-5564.692,-10866.18,512
3.689453,-5552.375,-10864.68,512
3.691406,-5570.467,-10879.04,512
3.693359,-5577.435,-10893.75,512
3.695312,-5567.648,-10930.52,512
3.697266,-5578.011,-10916.13,512
3.699219,-5596.318,-10873.21,512
3.701172,-5608.707,-10886.79,512
3.703125,-5616.527,-10877.88,512
3.705078,-5625.063,-10874.62,512
3.707031,-5630.886,-10854.07,512
3.708984,-5639.673,-10849.69,512
3.710938,-5628.347,-10848.65,512
3.712891,-5651.625,-10864.83,512
3.714844,-5641.082,-10865.69,512
3.716797,-5638.969,-10846.71,512
3.71875,-5654.82,-10866.98,512
3.720703,-5659.124,-10872.59,512
3.722656,-5649.708,-10843.86,512
3.724609,-5650.756,-10869.14,512
3.726562,-5652.89,-10881.64,512
3.728516,-5668.763,-10874.77,512
3.730469,-5650.505,-10878.54,512
3.732422,-5660.554,-10859.07,512
3.734375,-5675.416,-10845.5,512
3.736328,-5673.606,-10849.34,512
3.738281,-5675.375,-10863.13,512
3.740234,-5658.539,-10832.23,512
3.742188,-5684.986,-10852.25,512
3.744141,-5689.401,-10863.37,512
3.746094,-5670.415,-10866.76,512
3.748047,-5669.42,-10900.91,512
3.75,-5668.593,-10909.99,512
3.751953,-5668.247,-10900.48,512
3.753906,-5678.034,-10844.1,512
3.755859,-5683.965,-10809.92,512
3.757812,-5685.52,-10819.88,512
3.759766,-5684.741,-10839.26,512
3.761719,-5670.936,-10849.12,512
3.763672,-5665.562,-10847.7,512
3.765625,-5663.981,-10869.68,512
3.767578,-5661.846,-10856.15,512
3.769531,-5680.264,-10842.28,512
3.771484,-5687.251,-10821.18,512
3.773438,-5681.06,-10822.44,512
3.775391,-5689.248,-10842.26,512
3.777344,-5672.821,-10838.19,512
3.779297,-5659.894,-10839.22,512
3.78125,-5673.681,-10893.34,512
3.783203,-5676.051,-10853.38,512
3.785156,-5678.688,-10846.02,512
3.787109,-5689.7,-10872.21,512
3.789062,-5697.27,-10843.72,512
3.791016,-5696.946,-10819.34,512
3.792969,-5679.072,-10826.96,512
3.794922,-5668.572,-10837.67,512
3.796875,-5697.294,-10847.51,512
3.798828,-5704.585,-10865.25,512
3.800781,-5682.76,-10855.21,512
3.802734,-5698.699,-10849.22,512
3.804688,-5692.557,-10862.23,512
3.806641,-5669.752,-10876,512
3.808594,-5670.757,-10830.01,512
3.810547,-5670.717,-10827.07,512
3.8125,-5677.467,-10851.7,512
3.814453,-5668.725,-10860.82,512
3.816406,-5668.735,-10879.63,512
3.818359,-5667.639,-10902,512
3.820312,-5675.229,-10902.91,512
3.822266,-5667.659,-10869.1,512
3.824219,-5673.071,-10866.61,512
3.826172,-5677.355,-10827.51,512
3.828125,-5698.132,-10882.76,512
3.830078,-5695.39,-10890.92,512
3.832031,-5681.597,-10843.69,512
3.833984,-5679.406,-10823.3,512
3.835938,-5698.846,-10824.24,512
3.837891,-5676.339,-10849.28,512
3.839844,-5677.983,-10864.44,512
3.841797,-5674.353,-10887.58,512
3.84375,-5671.716,-10871.67,512
3.845703,-5695.688,-10880.22,512
3.847656,-5684.226,-10890.04,512
3.849609,-5684.637,-10873.66,512
3.851562,-5697.255,-10840.86,512
3.853516,-5688.4,-10833.48,512
3.855469,-5676.023,-10834,512
3.857422,-5688.658,-10818.58,512
3.859375,-5673.824,-10819.01,512
3.861328,-5690.5,-10867.76,512
3.863281,-5690.361,-10843.95,512
3.865234,-5686.531,-10855.2,512
3.867188,-5688.855,-10857.47,512
3.869141,-5688.804,-10844.58,512
3.871094,-5681.967,-10850.52,512
3.873047,-5676.693,-10857.09,512
3.875,-5671.044,-10848.49,512
3.876953,-5674.563,-10841.85,512
3.878906,-5673.914,-10855.67,512
3.880859,-5682.102,-10850.07,512
3.882812,-5684.22,-10835.24,512
3.884766,-5696.242,-10856.24,512
3.886719,-5687.307,-10844.65,512
3.888672,-5676.773,-10823.74,512
3.890625,-5699.514,-10846.66,512
3.892578,-5687.1,-10846.96,512
3.894531,-5687.775,-10837.14,512
3.896484,-5684.31,-10854.73,512
3.898438,-5670.441,-10854.27,512
3.900391,-5685.205,-10849.4,512
3.902344,-5674.273,-10838.33,512
3.904297,-5670.478,-10840.82,512
3.90625,-5689.397,-10880.38,512
3.908203,-5684.698,-10889.88,512
3.910156,-5689.14,-10869.64,512
3.912109,-5678.197,-10856.49,512
3.914062,-5665.142,-10839.54,512
3.916016,-5693.168,-10823.41,512
3.917969,-5684.333,-10840.18,512
3.919922,-5677.24,-10824.65,512
3.921875,-5690.007,-10837.56,512
3.923828,-5671.85,-10840.75,512
3.925781,-5677.282,-10876.42,512
3.927734,-5672.908,-10871.76,512
3.929688,-5659.116,-10854.52,512
3.931641,-5671.416,-10859.5,512
3.933594,-5674.418,-10873.67,512
3.935547,-5664.759,-10865.03,512
3.9375,-5687.081,-10838.58,512
3.939453,-5678.947,-10806.11,512
3.941406,-5682.117,-10820.11,512
3.943359,-5675.678,-10858.99,512
3.945312,-5685.532,-10838.81,512
3.947266,-5684.428,-10831.04,512
3.949219,-5685.651,-10859.64,512
3.951172,-5695.086,-10828.63,512
3.953125,-5684.936,-10823.17,512
3.955078,-5683.992,-10827.11,512
3.957031,-5685.492,-10821.16,512
3.958984,-5670.767,-10834.99,512
3.960938,-5670.709,-10835.55,512
3.962891,-5670.395,-10862.03,512
3.964844,-5687.737,-10874.49,512
3.966797,-5685.774,-10835.36,512
3.96875,-5681.304,-10836.77,512
3.970703,-5685.139,-10850.9,512
3.972656,-5684.464,-10840.52,512
3.974609,-5675.772,-10826.69,512
3.976562,-5685.899,-10843.46,512
3.978516,-5673.651,-10835.67,512
3.980469,-5692.968,-10845.57,512
3.982422,-5687.677,-10848.21,512
3.984375,-5673.477,-10854.17,512
3.986328,-5686.16,-10871.94,512
3.988281,-5678.658,-10841.73,512
3.990234,-5678.247,-10847.48,512
3.992188,-5687.755,-10883.11,512
3.994141,-5691.803,-10889.31,512
3.996094,-5694.431,-10874.94,512
3.998047,-5692.438,-10860.47,512
4,-5701.688,-10841.55,512
4.001953,-5688.418,-10815.5,512
4.003906,-5662.98,-10843.75,512
4.005859,-5662.275,-10871,512
4.007812,-5663.651,-10881.64,512
4.009766,-5663.001,-10898.09,512
4.011719,-5714.065,-10912.03,512
4.013672,-5690.598,-10858.17,512
4.015625,-5701.472,-10806.51,512
4.017578,-5722.626,-10813.82,512
4.019531,-5694.282,-10817.06,512
4.021484,-5713.573,-10821.67,512
4.023438,-5706.583,-10845.57,512
4.025391,-5697.109,-10843.63,512
4.027344,-5677.126,-10838.1,512
4.029297,-5686.257,-10840.2,512
4.03125,-5669.485,-10835.26,512
4.033203,-5682.888,-10885.64,512
4.035156,-5698.416,-10857.17,512
4.037109,-5679.036,-10862.23,512
4.039062,-5683.88,-10831.26,512
4.041016,-5674.137,-10786.79,512
4.042969,-5669.968,-10800.22,512
4.044922,-5661.454,-10800.22,512
4.046875,-5674.038,-10826.87,512
4.048828,-5691.062,-10822.28,512
4.050781,-5676.717,-10823.81,512
4.052734,-5675.756,-10837.53,512
4.054688,-5678.676,-10824.64,512
4.056641,-5680.051,-10837.46,512
4.058594,-5673.772,-10866.97,512
4.060547,-5677.772,-10833.19,512
4.0625,-5681.061,-10830.66,512
4.064453,-5678.615,-10864.74,512
4.066406,-5694.575,-10841.73,512
4.068359,-5675.101,-10889.82,512
4.070312,-5672.729,-10883.87,512
4.072266,-5657.534,-10836.08,512
4.074219,-5682.346,-10848.92,512
4.076172,-5693.968,-10819.96,512
4.078125,-5699.193,-10818.84,512
4.080078,-5682.946,-10821.58,512
4.082031,-5693.111,-10821.52,512
4.083984,-5702.983,-10839.83,512
4.085938,-5693.928,-10849.49,512
4.087891,-5694.517,-10834.44,512
4.089844,-5688.753,-10820.04,512
4.091797,-5707.27,-10835.16,512
4.09375,-5708.843,-10845.04,512
4.095703,-5692.334,-10840.63,512
4.097656,-5689.612,-10846.39,512
4.099609,-5684.499,-10853.74,512
4.101562,-5682.858,-10843.7,512
4.103516,-5686.954,-10848.86,512
4.105469,-5684.443,-10824.28,512
4.107422,-5690.43,-10841.83,512
4.109375,-5696.397,-10842.57,512
4.111328,-5704.696,-10837.49,512
4.113281,-5700.144,-10836.31,512
4.115234,-5691.807,-10847.4,512
4.117188,-5685.76,-10865.79,512
4.119141,-5684.66,-10867.05,512
4.121094,-5663.859,-10887.41,512
4.123047,-5675.72,-10924.5,512
4.125,-5686.695,-10881.55,512
4.126953,-5692.191,-10883.19,512
4.128906,-5709.631,-10841.21,512
4.130859,-5722.165,-10824.01,512
4.132812,-5706.089,-10823.22,512
4.134766,-5711.593,-10815.4,512
4.136719,-5699.873,-10822.96,512
4.138672,-5701.585,-10828.61,512
4.140625,-5706.022,-10853.95,512
4.142578,-5701.119,-10884.13,512
4.144531,-5695.8,-10902.65,512
4.146484,-5697.26,-10908.21,512
4.148438,-5698.243,-10888.46,512
4.150391,-5699.354,-10849.12,512
4.152344,-5706.287,-10828.56,512
4.154297,-5708.213,-10819.8,512
4.15625,-5701.454,-10820.3,512
4.158203,-5702.379,-10841.38,512
4.160156,-5700.698,-10846.78,512
4.162109,-5696.189,-10847.57,512
4.164062,-5699.706,-10853.27,512
4.166016,-5711.286,-10857.1,512
4.167969,-5721.544,-10851.45,512
4.169922,-5679.503,-10841.39,512
4.171875,-5680.426,-10837.4,512
4.173828,-5694.397,-10838.7,512
4.175781,-5693.664,-10850.03,512
4.177734,-5694.948,-10858.71,512
4.179688,-5698.543,-10873.73,512
4.181641,-5711.362,-10878.57,512
4.183594,-5702.983,-10864.15,512
4.185547,-5702.722,-10899.29,512
4.1875,-5698.083,-10887.83,512
4.189453,-5690.73,-10855.75,512
4.191406,-5704.072,-10861.57,512
4.193359,-5705.354,-10860.68,512
4.195312,-5707.31,-10867.71,512
4.197266,-5715.541,-10880.49,512
4.199219,-5724.91,-10889.28,512
4.201172,-5695.894,-10892.64,512
4.203125,-5670.292,-10888.69,512
4.205078,-5686.562,-10909.93,512
4.207031,-5708.478,-10894.59,512
4.208984,-5688.667,-10932.44,512
4.210938,-5694.486,-10869.12,512
4.212891,-5686.565,-10779.17,512
4.214844,-5694.267,-10782.4,512
4.216797,-5705.991,-10829.8,512
4.21875,-5675.521,-10865.29,512
4.220703,-5680.835,-10879.78,512
4.222656,-5676.626,-10846.56,512
4.224609,-5672.797,-10863.91,512
4.226562,-5678.301,-10862.74,512
4.228516,-5686.524,-10853.2,512
4.230469,-5689.743,-10843.94,512
4.232422,-5694.007,-10823.81,512
4.234375,-5689.48,-10815.38,512
4.236328,-5674.875,-10840.44,512
4.238281,-5682.751,-10837.09,512
4.240234,-5683.335,-10823.9,512
4.242188,-5671.625,-10836.32,512
4.244141,-5680.333,-10845.3,512
4.246094,-5670.18,-10864.72,512
4.248047,-5679.335,-10885.85,512
4.25,-5681.121,-10891.15,512
4.251953,-5676.78,-10893.78,512
4.253906,-5666.286,-10865.23,512
4.255859,-5670.488,-10861.49,512
4.257812,-5687.75,-10872.73,512
4.259766,-5684.004,-10875.31,512
4.261719,-5665.96,-10869.34,512
4.263672,-5685.89,-10888.31,512
4.265625,-5686.041,-10871.57,512
4.267578,-5695.76,-10883.2,512
4.269531,-5696.746,-10858.85,512
4.271484,-5689.03,-10877.5,512
4.273438,-5692.715,-10915.34,512
4.275391,-5704.091,-10851.96,512
4.277344,-5690.945,-10870.47,512
4.279297,-5686.296,-10882.23,512
4.28125,-5686.903,-10887.45,512
4.283203,-5677.328,-10884.14,512
4.285156,-5677.878,-10882.62,512
4.287109,-5678.939,-10895.35,512
4.289062,-5669.69,-10892.46,512
4.291016,-5664.583,-10894.54,512
4.292969,-5695.488,-10878.73,512
4.294922,-5726.649,-10889.37,512
4.296875,-5714.691,-10849.28,512
4.298828,-5711.505,-10814.76,512
4.300781,-5715.394,-10871.16,512
4.302734,-5705.47,-10855.62,512
4.304688,-5688.984,-10877.66,512
4.306641,-5692.983,-10858.25,512
4.308594,-5704.949,-10841.66,512
4.310547,-5710.965,-10825.55,512
4.3125,-5700.958,-10835.75,512
4.314453,-5697.955,-10847.69,512
4.316406,-5687.103,-10840.84,512
4.318359,-5690.719,-10855,512
4.320312,-5697.156,-10830.72,512
4.322266,-5698.793,-10837.08,512
4.324219,-5701.249,-10863.36,512
4.326172,-5688.144,-10856.97,512
4.328125,-5687.065,-10861.64,512
4.330078,-5690.589,-10851.59,512
4.332031,-5697.633,-10863.37,512
4.333984,-5694.184,-10852.68,512
4.335938,-5698.72,-10856.68,512
4.337891,-5691.1,-10845.46,512
4.339844,-5696.437,-10854.36,512
4.341797,-5710.006,-10874.87,512
4.34375,-5704.801,-10879.43,512
4.345703,-5709.702,-10880.46,512
4.347656,-5698.493,-10890.63,512
4.349609,-5698.656,-10856.69,512
4.351562,-5704.866,-10834.4,512
4.353516,-5716.919,-10845.51,512
4.355469,-5690.048,-10847.22,512
4.357422,-5682.232,-10844,512
4.359375,-5690.967,-10847.35,512
4.361328,-5668.354,-10877.59,512
4.363281,-5660.763,-10846.51,512
4.365234,-5659.401,-10883.53,512
4.367188,-5633.983,-10873.18,512
4.369141,-5602.761,-10818.94,512
4.371094,-5601.017,-10851.16,512
4.373047,-5580.478,-10870.13,512
4.375,-5563.99,-10866.06,512
4.376953,-5569.226,-10897.08,512
4.378906,-5576.13,-10950.58,512
4.380859,-5572.302,-10933.74,512
4.382812,-5578.608,-10932.63,512
4.384766,-5575.913,-10917.7,512
4.386719,-5591.406,-10915.94,512
4.388672,-5626.893,-10914.28,512
4.390625,-5675.271,-10934.83,512
4.392578,-5686.823,-10949.64,512
4.394531,-5690.804,-10952.58,512
4.396484,-5676.489,-10950.77,512
4.398438,-5695.822,-10929.82,512
4.400391,-5726.22,-10951.15,512
4.402344,-5726.672,-10947.02,512
4.404297,-5744.272,-10880.12,512
4.40625,-5763.901,-10845.5,512
4.408203,-5800.305,-10843.23,512
4.410156,-5805.246,-10831.38,512
4.412109,-5813.169,-10817.47,512
4.414062,-5813.253,-10842.72,512
4.416016,-5801.15,-10850.74,512
4.417969,-5760.266,-10845.03,512
4.419922,-5753.708,-10862.99,512
4.421875,-5746.679,-10882.77,512
4.423828,-5730.897,-10880.57,512
4.425781,-5696.43,-10863.21,512
4.427734,-5680.547,-10881.58,512
4.429688,-5681.435,-10875.83,512
4.431641,-5691.608,-10858.84,512
4.433594,-5690.927,-10865.55,512
4.435547,-5661.934,-10849.51,512
4.4375,-5684.625,-10853.94,512
4.439453,-5684.521,-10846.39,512
4.441406,-5689.351,-10842.49,512
4.443359,-5683.181,-10879.56,512
4.445312,-5682.504,-10850.65,512
4.447266,-5670.311,-10845.79,512
4.449219,-5671.374,-10884.58,512
4.451172,-5673.985,-10894.88,512
4.453125,-5674.369,-10887.21,512
4.455078,-5662.478,-10894.67,512
4.457031,-5675.36,-10876.6,512
4.458984,-5702.187,-10868.57,512
4.460938,-5682.373,-10848.88,512
4.462891,-5679.005,-10834.88,512
4.464844,-5687.567,-10881.26,512
4.466797,-5679.104,-10870.74,512
4.46875,-5681.087,-10850.49,512
4.470703,-5671.547,-10879.71,512
4.472656,-5675.935,-10907.05,512
4.474609,-5672.487,-10938.67,512
4.476562,-5644.484,-10896.03,512
4.478516,-5639.612,-10869.19,512
4.480469,-5668.007,-10819.36,512
4.482422,-5673.914,-10854.37,512
4.484375,-5675.986,-10863.67,512
4.486328,-5672.321,-10818.92,512
4.488281,-5666.392,-10814.66,512
4.490234,-5663.042,-10828.29,512
4.492188,-5649.429,-10830.62,512
4.494141,-5666.133,-10835.24,512
4.496094,-5662.523,-10850.38,512
4.498047,-5644.149,-10847.18,512
4.5,-5654.155,-10851.5,512
4.501953,-5648.667,-10851,512
4.503906,-5652.392,-10877.06,512
4.505859,-5655.161,-10884.44,512
4.507812,-5641.323,-10854.37,512
4.509766,-5629.746,-10845.3,512
4.511719,-5657.013,-10851.02,512
4.513672,-5668.541,-10830.49,512
4.515625,-5665.968,-10854.59,512
4.517578,-5649.399,-10841.71,512
4.519531,-5646.112,-10840.74,512
4.521484,-5660.969,-10858.55,512
4.523438,-5651.179,-10861.99,512
4.525391,-5641.383,-10858.39,512
4.527344,-5639.979,-10865.5,512
4.529297,-5648.054,-10856.24,512
4.53125,-5665.216,-10894.23,512
4.533203,-5648.937,-10902.32,512
4.535156,-5628.87,-10888.62,512
4.537109,-5632.87,-10846.18,512
4.539062,-5653.522,-10844.86,512
4.541016,-5657.917,-10855.24,512
4.542969,-5642.678,-10858.16,512
4.544922,-5649.777,-10868.93,512
4.546875,-5658.175,-10907.69,512
4.548828,-5650.631,-10902.79,512
4.550781,-5643.883,-10862.54,512
4.552734,-5630.788,-10866.3,512
4.554688,-5617.21,-10871.14,512
4.556641,-5620.494,-10869.52,512
4.558594,-5618.126,-10901.88,512
4.560547,-5604.537,-10914.21,512
4.5625,-5599.881,-10926.71,512
4.564453,-5607.21,-10925.62,512
4.566406,-5611.027,-10871.32,512
4.568359,-5618.002,-10846.36,512
4.570312,-5629.613,-10840.75,512
4.572266,-5633.291,-10844.29,512
4.574219,-5613.368,-10872.54,512
4.576172,-5593.923,-10869.97,512
4.578125,-5602.431,-10862.82,512
4.580078,-5592.809,-10856.55,512
4.582031,-5593.938,-10880.34,512
4.583984,-5600.826,-10883.34,512
4.585938,-5579.714,-10906.01,512
4.587891,-5567.451,-10877.71,512
4.589844,-5556.078,-10867.87,512
4.591797,-5560.245,-10892.64,512
4.59375,-5574.991,-10897.84,512
4.595703,-5576.177,-10871.28,512
4.597656,-5579.404,-10894.95,512
4.599609,-5563.173,-10877.57,512
4.601562,-5557.234,-10871.74,512
4.603516,-5562.343,-10879.05,512
4.605469,-5554.718,-10870.04,512
4.607422,-5550.322,-10875.39,512
4.609375,-5550.878,-10879.21,512
4.611328,-5555.264,-10881.16,512
4.613281,-5553.231,-10891.46,512
4.615234,-5542.978,-10898.79,512
4.617188,-5546.85,-10903.14,512
4.619141,-5542.004,-10915.9,512
4.621094,-5547.334,-10900.99,512
4.623047,-5548.945,-10915.27,512
4.625,-5546.385,-10914.69,512
4.626953,-5551.893,-10891.39,512
4.628906,-5551.742,-10892.67,512
4.630859,-5566.15,-10909.35,512
4.632812,-5575.402,-10920.99,512
4.634766,-5550.417,-10916.38,512
4.636719,-5559.513,-10936.62,512
4.638672,-5558.296,-10933.15,512
4.640625,-5572.083,-10925,512
4.642578,-5583.324,-10885.02,512
4.644531,-5601.12,-10872.74,512
4.646484,-5596.161,-10832.61,512
4.648438,-5609.38,-10852.04,512
4.650391,-5619.519,-10899.06,512
4.652344,-5609.611,-10884.94,512
4.654297,-5624.956,-10873.01,512
4.65625,-5610.198,-10920.93,512
4.658203,-5619.338,-10925.33,512
4.660156,-5632.456,-10916.02,512
4.662109,-5641.703,-10859.5,512
4.664062,-5656.221,-10864.91,512
4.666016,-5661.377,-10863.99,512
4.667969,-5667.2,-10860.76,512
4.669922,-5672.649,-10880.4,512
4.671875,-5671.444,-10884.72,512
4.673828,-5661.035,-10902.98,512
4.675781,-5677.685,-10861.87,512
4.677734,-5685.652,-10848.07,512
4.679688,-5683.239,-10864.52,512
4.681641,-5683.672,-10871.87,512
4.683594,-5690.086,-10916.7,512
4.685547,-5689.193,-10901.2,512
4.6875,-5692.631,-10886.37,512
4.689453,-5700.242,-10872.77,512
4.691406,-5701.886,-10848.39,512
4.693359,-5694.828,-10824.74,512
4.695312,-5691.551,-10835.34,512
4.697266,-5693.342,-10854.08,512
4.699219,-5698.146,-10863.06,512
4.701172,-5692.45,-10868,512
4.703125,-5691.561,-10872.84,512
4.705078,-5700.59,-10868.59,512
4.707031,-5702.18,-10872.62,512
4.708984,-5703.838,-10868.02,512
4.710938,-5678.674,-10851.75,512
4.712891,-5684.652,-10857.55,512
4.714844,-5693.874,-10855.06,512
4.716797,-5695.061,-10861.76,512
4.71875,-5700.779,-10863.03,512
4.720703,-5698.878,-10862.27,512
4.722656,-5688.17,-10850.31,512
4.724609,-5696.356,-10865.76,512
4.726562,-5685.563,-10878.25,512
4.728516,-5681.576,-10880.98,512
4.730469,-5699.751,-10891.88,512
4.732422,-5695.181,-10880.15,512
4.734375,-5701.545,-10881.24,512
4.736328,-5705.655,-10883.47,512
4.738281,-5698.799,-10875.04,512
4.740234,-5689.653,-10876.64,512
4.742188,-5696.943,-10852.29,512
4.744141,-5699.289,-10867.45,512
4.746094,-5714.051,-10884.89,512
4.748047,-5717.819,-10850.64,512
4.75,-5697.209,-10870,512
4.751953,-5692.408,-10883.57,512
4.753906,-5700.514,-10879.22,512
4.755859,-5686.5,-10859.08,512
4.757812,-5697.894,-10855.9,512
4.759766,-5715.148,-10874.54,512
4.761719,-5705.929,-10897.69,512
4.763672,-5710.199,-10886.1,512
4.765625,-5705.932,-10869.58,512
4.767578,-5709.312,-10888.37,512
4.769531,-5710.505,-10907.47,512
4.771484,-5704.978,-10874.92,512
4.773438,-5717.76,-10867.62,512
4.775391,-5704.445,-10897.83,512
4.777344,-5695.328,-10873.35,512
4.779297,-5691.981,-10876.67,512
4.78125,-5704.745,-10864.66,512
4.783203,-5708.565,-10870.78,512
4.785156,-5724.047,-10857.71,512
4.787109,-5730.849,-10872.8,512
4.789062,-5724.454,-10867.57,512
4.791016,-5700.072,-10858.54,512
4.792969,-5720.859,-10862.63,512
4.794922,-5721.014,-10886.51,512
4.796875,-5686.606,-10884.4,512
4.798828,-5698.901,-10898.57,512
4.800781,-5708.327,-10910.65,512
4.802734,-5722.732,-10903.52,512
4.804688,-5716.7,-10884.18,512
4.806641,-5706.347,-10853.7,512
4.808594,-5718.865,-10850.67,512
4.810547,-5718.184,-10863.57,512
4.8125,-5704.854,-10866.32,512
4.814453,-5700.382,-10883.08,512
4.816406,-5700.154,-10912.78,512
4.818359,-5681.21,-10877.25,512
4.820312,-5679.801,-10874.99,512
4.822266,-5692.2,-10868.72,512
4.824219,-5709.474,-10828.28,512
4.826172,-5717.22,-10827.01,512
4.828125,-5719.792,-10868.52,512
4.830078,-5698.397,-10895.17,512
4.832031,-5700.58,-10894.23,512
4.833984,-5712.368,-10902.94,512
4.835938,-5701.833,-10897.53,512
4.837891,-5713.077,-10883.86,512
4.839844,-5716.118,-10869.56,512
4.841797,-5707.775,-10854.17,512
4.84375,-5708.605,-10850.02,512
4.845703,-5707.055,-10869.36,512
4.847656,-5691.687,-10873.69,512
4.849609,-5726.067,-10893.01,512
4.851562,-5720.683,-10903.38,512
4.853516,-5705.803,-10869.74,512
4.855469,-5700.97,-10856.12,512
4.857422,-5717.934,-10857.5,512
4.859375,-5715.065,-10859.18,512
4.861328,-5703.596,-10872.05,512
4.863281,-5711.146,-10881.26,512
4.865234,-5711.429,-10891.52,512
4.867188,-5711.871,-10903.65,512
4.869141,-5710.161,-10878.15,512
4.871094,-5705.354,-10870.85,512
4.873047,-5707.094,-10866.61,512
4.875,-5709.463,-10877.58,512
4.876953,-5697.678,-10883.49,512
4.878906,-5699.068,-10884.54,512
4.880859,-5702.094,-10906.72,512
4.882812,-5704.023,-10914.19,512
4.884766,-5702.211,-10914.16,512
4.886719,-5708.575,-10902.65,512
4.888672,-5696.255,-10866.12,512
4.890625,-5696.308,-10879.26,512
4.892578,-5712.417,-10869.16,512
4.894531,-5717.195,-10898.32,512
4.896484,-5708.014,-10908.54,512
4.898438,-5716.046,-10873.39,512
4.900391,-5711.291,-10896.04,512
4.902344,-5713.997,-10876.38,512
4.904297,-5705.454,-10868.7,512
4.90625,-5689.546,-10853.14,512
4.908203,-5698.379,-10858.32,512
4.910156,-5691.089,-10858.25,512
4.912109,-5684.095,-10864.25,512
4.914062,-5689.404,-10866.44,512
4.916016,-5698.674,-10852.84,512
4.917969,-5697.101,-10868.87,512
4.919922,-5705.43,-10857.06,512
4.921875,-5714.271,-10826.36,512
4.923828,-5706.095,-10851.86,512
4.925781,-5701.778,-10853.73,512
4.927734,-5715.756,-10877.64,512
4.929688,-5717.968,-10895.54,512
4.931641,-5703.541,-10887,512
4.933594,-5686.19,-10896.67,512
4.935547,-5676.101,-10887.96,512
4.9375,-5689.021,-10875.27,512
4.939453,-5700.611,-10839.75,512
4.941406,-5709.693,-10848.08,512
4.943359,-5716.153,-10858.97,512
4.945312,-5701.461,-10858.59,512
4.947266,-5710.976,-10862.7,512
4.949219,-5716.19,-10850.63,512
4.951172,-5704.46,-10844.6,512
4.953125,-5705.332,-10859.97,512
4.955078,-5706.226,-10849.78,512
4.957031,-5712.002,-10871.99,512
4.958984,-5718.013,-10890.88,512
4.960938,-5690.806,-10852.83,512
4.962891,-5679.336,-10883.56,512
4.964844,-5676.749,-10919.33,512
4.966797,-5689.717,-10935.04,512
4.96875,-5704.98,-10911.7,512
4.970703,-5721.737,-10872.1,512
4.972656,-5720.491,-10872.71,512
4.974609,-5724.194,-10855.2,512
4.976562,-5713.422,-10836.19,512
4.978516,-5723.028,-10863.08,512
4.980469,-5730.738,-10880.63,512
4.982422,-5725.347,-10881.28,512
4.984375,-5710.889,-10873.58,512
4.986328,-5731.821,-10889.68,512
4.988281,-5726.521,-10904.16,512
4.990234,-5709.719,-10895.09,512
4.992188,-5706.492,-10868.94,512
4.994141,-5702.711,-10872.34,512
4.996094,-5709.538,-10910.82,512
4.998047,-5711.542,-10943.88,512
5,-5719.81,-10928.69,512
5.001953,-5725.67,-10896.05,512
5.003906,-5717.656,-10886.99,512
5.005859,-5706.759,-10902.55,512
5.007812,-5695.966,-10890.35,512
5.009766,-5692.711,-10885.08,512
5.011719,-5704.267,-10865.42,512
5.013672,-5704.508,-10832.38,512
5.015625,-5694.65,-10852.53,512
5.017578,-5696.647,-10885.51,512
5.019531,-5683.553,-10879.06,512
5.021484,-5691.983,-10895.7,512
5.023438,-5697.704,-10903.06,512
5.025391,-5686.104,-10856.66,512
5.027344,-5683.555,-10883.2,512
5.029297,-5688.967,-10895.88,512
5.03125,-5692.587,-10878.79,512
5.033203,-5702.954,-10889.11,512
5.035156,-5708.095,-10876.88,512
5.037109,-5713.841,-10871.16,512
5.039062,-5711.15,-10884.73,512
5.041016,-5692.845,-10896.6,512
5.042969,-5705.102,-10937.84,512
5.044922,-5690.076,-10923.85,512
5.046875,-5692.159,-10893.29,512
5.048828,-5705.243,-10866.3,512
5.050781,-5695.935,-10860.02,512
5.052734,-5718.154,-10840.69,512
5.054688,-5703.077,-10837.1,512
5.056641,-5711.974,-10866.41,512
5.058594,-5711.64,-10865.97,512
5.060547,-5702.307,-10867.99,512
5.0625,-5703.991,-10875,512
5.064453,-5701.352,-10876.76,512
5.066406,-5708.721,-10890.77,512
5.068359,-5702.033,-10872.3,512
5.070312,-5700.896,-10857.67,512
5.072266,-5680.86,-10847.26,512
5.074219,-5681.613,-10853.57,512
5.076172,-5682.432,-10866.71,512
5.078125,-5690.379,-10884.37,512
5.080078,-5699.879,-10889.94,512
5.082031,-5685.701,-10887.4,512
5.083984,-5689.013,-10883.37,512
5.085938,-5683.503,-10855.15,512
5.087891,-5671.981,-10841.54,512
5.089844,-5688.007,-10846.08,512
5.091797,-5682.176,-10857.85,512
5.09375,-5674.313,-10874.45,512
5.095703,-5669.793,-10863.51,512
5.097656,-5667.542,-10860.47,512
5.099609,-5676.407,-10846.61,512
5.101562,-5681.478,-10867.74,512
5.103516,-5685.778,-10870.07,512
5.105469,-5677.494,-10869.18,512
5.107422,-5690.125,-10864.57,512
5.109375,-5695.367,-10849.3,512
5.111328,-5678.42,-10844.41,512
5.113281,-5686.235,-10841.88,512
5.115234,-5696.911,-10852.85,512
5.117188,-5681.336,-10872.79,512
5.119141,-5678.635,-10906.62,512
5.121094,-5694.889,-10870.14,512
5.123047,-5677.188,-10859.67,512
5.125,-5672.277,-10891.04,512
5.126953,-5679.615,-10921.27,512
5.128906,-5682.138,-10918.66,512
5.130859,-5671.663,-10880.81,512
5.132812,-5689.669,-10843.49,512
5.134766,-5697.394,-10821.74,512
5.136719,-5692.39,-10840.72,512
5.138672,-5698.388,-10861.49,512
5.140625,-5698.341,-10843.93,512
5.142578,-5692.821,-10854.1,512
5.144531,-5684.252,-10885.59,512
5.146484,-5670.243,-10901.03,512
5.148438,-5682.795,-10930.2,512
5.150391,-5692.03,-10920.46,512
5.152344,-5688.682,-10899.31,512
5.154297,-5715.689,-10843.34,512
5.15625,-5709.897,-10806.63,512
5.158203,-5716.13,-10832,512
5.160156,-5709.051,-10858.58,512
5.162109,-5688.751,-10838.86,512
5.164062,-5694.168,-10861.34,512
5.166016,-5688.6,-10871.83,512
5.167969,-5692.629,-10880.21,512
5.169922,-5709.085,-10886.93,512
5.171875,-5698.62,-10881.8,512
5.173828,-5695.463,-10874.6,512
5.175781,-5691.636,-10849.91,512
5.177734,-5700.1,-10866.97,512
5.179688,-5696.139,-10884.84,512
5.181641,-5704.073,-10876.07,512
5.183594,-5700.839,-10874.75,512
5.185547,-5700.021,-10864.62,512
5.1875,-5678.343,-10867.44,512
5.189453,-5682.308,-10861.13,512
5.191406,-5677.288,-10899.47,512
5.193359,-5680.981,-10861.66,512
5.195312,-5688.75,-10863.93,512
5.197266,-5674.184,-10873.51,512
5.199219,-5689.774,-10899.34,512
5.201172,-5690.845,-10909.42,512
5.203125,-5664.05,-10916.29,512
5.205078,-5664.582,-10905.34,512
5.207031,-5677.221,-10887.73,512
5.208984,-5676.606,-10868.18,512
5.210938,-5671.31,-10856.86,512
5.212891,-5665.233,-10876.69,512
5.214844,-5662.783,-10874.53,512
5.216797,-5671.308,-10901.35,512
5.21875,-5673.094,-10907.27,512
5.220703,-5680.483,-10899,512
5.222656,-5679.829,-10915.12,512
5.224609,-5686.833,-10904.67,512
5.226562,-5693.501,-10868.93,512
5.228516,-5690.393,-10855.88,512
5.230469,-5689.367,-10875.84,512
5.232422,-5689.775,-10879.44,512
5.234375,-5692.003,-10885.75,512
5.236328,-5697.013,-10886.69,512
5.238281,-5703.337,-10905.45,512
5.240234,-5688.208,-10861.64,512
5.242188,-5687.194,-10854.43,512
5.244141,-5696.113,-10868.72,512
5.246094,-5681.323,-10884.01,512
5.248047,-5678.546,-10907.34,512
5.25,-5678.829,-10915.19,512
5.251953,-5692.58,-10905.35,512
5.253906,-5691.304,-10885.17,512
5.255859,-5702.269,-10856.91,512
5.257812,-5703.549,-10828.57,512
5.259766,-5694.972,-10836.59,512
5.261719,-5697.124,-10842.9,512
5.263672,-5692.583,-10868.8,512
5.265625,-5695.603,-10886.29,512
5.267578,-5696.833,-10904.52,512
5.269531,-5696.466,-10909.96,512
5.271484,-5686.809,-10893.22,512
5.273438,-5699.26,-10868.45,512
5.275391,-5711.109,-10832.8,512
5.277344,-5698.497,-10860.85,512
5.279297,-5686.488,-10857.55,512
5.28125,-5677.219,-10844.96,512
5.283203,-5684.018,-10859,512
5.285156,-5687.652,-10850.73,512
5.287109,-5673.728,-10844.62,512
5.289062,-5682.764,-10845.61,512
5.291016,-5683.692,-10822.58,512
5.292969,-5683.426,-10857.7,512
5.294922,-5687.483,-10854.32,512
5.296875,-5692.204,-10834.07,512
5.298828,-5693.857,-10858.73,512
5.300781,-5665.467,-10847.04,512
5.302734,-5677.926,-10858.16,512
5.304688,-5683.562,-10869.34,512
5.306641,-5684.004,-10876.26,512
5.308594,-5671.837,-10857.48,512
5.310547,-5675.069,-10852.99,512
5.3125,-5683.249,-10867.56,512
5.314453,-5668.191,-10857.04,512
5.316406,-5654.017,-10880.63,512
5.318359,-5642.871,-10846.55,512
5.320312,-5650.053,-10814.58,512
5.322266,-5629.624,-10834.44,512
5.324219,-5617.212,-10861.41,512
5.326172,-5600.28,-10835.85,512
5.328125,-5584.586,-10879.05,512
5.330078,-5552.474,-10913.02,512
5.332031,-5560.518,-10940.57,512
5.333984,-5553.884,-10991.65,512
5.335938,-5543.717,-10990.84,512
5.337891,-5582.549,-10953.3,512
5.339844,-5596.488,-10963.73,512
5.341797,-5592.109,-10945.82,512
5.34375,-5610.702,-10939.46,512
5.345703,-5647.102,-10984.91,512
5.347656,-5676.433,-10920.41,512
5.349609,-5664.117,-10880.72,512
5.351562,-5674.576,-10936.71,512
5.353516,-5682.703,-10939.35,512
5.355469,-5690.7,-10919.87,512
5.357422,-5698.851,-10944.39,512
5.359375,-5709.786,-10936.52,512
5.361328,-5725.751,-10914.32,512
5.363281,-5760.583,-10901.71,512
5.365234,-5821.307,-10884.77,512
5.367188,-5804.246,-10839.5,512
5.369141,-5787.47,-10798.58,512
5.371094,-5771.751,-10824.93,512
5.373047,-5755.275,-10874.53,512
5.375,-5760.037,-10846.84,512
5.376953,-5735.771,-10826.28,512
5.378906,-5716.296,-10856.18,512
5.380859,-5698.396,-10865.68,512
5.382812,-5679.844,-10882.37,512
5.384766,-5675.493,-10849.64,512
5.386719,-5671.15,-10833.03,512
5.388672,-5674.092,-10833.7,512
5.390625,-5673.571,-10841.23,512
5.392578,-5666.545,-10852.1,512
5.394531,-5666.758,-10868.17,512
5.396484,-5676.398,-10877.23,512
5.398438,-5673.771,-10872.34,512
5.400391,-5669.222,-10871.53,512
5.402344,-5670.102,-10872.74,512
5.404297,-5671.754,-10855.23,512
5.40625,-5669.102,-10835.7,512
5.408203,-5683.262,-10855.05,512
5.410156,-5673.939,-10863.69,512
5.412109,-5665.686,-10855.21,512
5.414062,-5679.416,-10885.58,512
5.416016,-5679.753,-10879.92,512
5.417969,-5671.248,-10875.96,512
5.419922,-5663.158,-10867.54,512
5.421875,-5661.086,-10852.54,512
5.423828,-5660.783,-10873.48,512
5.425781,-5653.858,-10941.79,512
5.427734,-5651.159,-10950.88,512
5.429688,-5656.412,-10918.96,512
5.431641,-5655.521,-10872.32,512
5.433594,-5663.326,-10831.35,512
5.435547,-5674.893,-10832.38,512
5.4375,-5680.51,-10841.41,512
5.439453,-5662.812,-10824.57,512
5.441406,-5669.797,-10842.38,512
5.443359,-5659.68,-10868.82,512
5.445312,-5655.566,-10897.1,512
5.447266,-5643.147,-10860.75,512
5.449219,-5639.101,-10876.76,512
5.451172,-5643.239,-10896.16,512
5.453125,-5641.513,-10865.94,512
5.455078,-5649.871,-10881.58,512
5.457031,-5647.693,-10874.03,512
5.458984,-5647.899,-10842.22,512
5.460938,-5649.014,-10848.66,512
5.462891,-5656.906,-10873.38,512
5.464844,-5650.773,-10878.69,512
5.466797,-5653.098,-10863.23,512
5.46875,-5642.456,-10863.38,512
5.470703,-5634.293,-10841.88,512
5.472656,-5637.996,-10864.59,512
5.474609,-5643.288,-10872.59,512
5.476562,-5653.623,-10867.59,512
5.478516,-5618.66,-10854.4,512
5.480469,-5634.24,-10885.89,512
5.482422,-5645.115,-10873.05,512
5.484375,-5626.945,-10882.05,512
5.486328,-5626.733,-10880.54,512
5.488281,-5625.891,-10882.89,512
5.490234,-5638.268,-10868.54,512
5.492188,-5634.816,-10862.81,512
5.494141,-5639.673,-10872.93,512
5.496094,-5637.571,-10870.96,512
5.498047,-5631.958,-10871.37,512
5.5,-5626.81,-10867.66,512
5.501953,-5622.73,-10867.71,512
5.503906,-5613.579,-10879.17,512
5.505859,-5600.641,-10890.48,512
5.507812,-5612.055,-10877.24,512
5.509766,-5611.805,-10903.82,512
5.511719,-5613.791,-10894.66,512
5.513672,-5610.701,-10884.43,512
5.515625,-5611.472,-10877.7,512
5.517578,-5601.231,-10869.4,512
5.519531,-5596.984,-10866.23,512
5.521484,-5596.893,-10869.45,512
5.523438,-5589.6,-10871.95,512
5.525391,-5584.296,-10909.08,512
5.527344,-5571.794,-10886.65,512
5.529297,-5573.788,-10885.08,512
5.53125,-5585.235,-10873.93,512
5.533203,-5577.554,-10848.79,512
5.535156,-5590.171,-10852.84,512
5.537109,-5570.298,-10868.01,512
5.539062,-5560.059,-10869.69,512
5.541016,-5567.839,-10850.13,512
5.542969,-5560.884,-10859.26,512
5.544922,-5546.32,-10858.29,512
5.546875,-5555.666,-10878.24,512
5.548828,-5540.559,-10862.21,512
5.550781,-5540.037,-10855.98,512
5.552734,-5542.886,-10872.89,512
5.554688,-5540.381,-10881.19,512
5.556641,-5540.426,-10872.82,512
5.558594,-5523.549,-10877.77,512
5.560547,-5515.092,-10891.61,512
5.5625,-5507.706,-10891.64,512
5.564453,-5502.031,-10913.44,512
5.566406,-5505.158,-10920.54,512
5.568359,-5510.092,-10901.64,512
5.570312,-5512.212,-10901.59,512
5.572266,-5511.195,-10889.31,512
5.574219,-5501.946,-10893.29,512
5.576172,-5497.284,-10872.48,512
5.578125,-5513.357,-10858.28,512
5.580078,-5505.169,-10870.2,512
5.582031,-5507.12,-10873.1,512
5.583984,-5520.467,-10891.68,512
5.585938,-5521.898,-10904,512
5.587891,-5505.506,-10885.6,512
5.589844,-5523.147,-10892.97,512
5.591797,-5543.125,-10893.11,512
5.59375,-5547.159,-10882.64,512
5.595703,-5559.296,-10875.28,512
5.597656,-5572.571,-10907.99,512
5.599609,-5551.55,-10937.83,512
5.601562,-5561.907,-10947.48,512
5.603516,-5576,-10931.69,512
5.605469,-5583.568,-10900.05,512
5.607422,-5600.578,-10852.43,512
5.609375,-5607.094,-10817.69,512
5.611328,-5606.584,-10833.15,512
5.613281,-5612.836,-10846.83,512
5.615234,-5615.229,-10855.94,512
5.617188,-5615.073,-10852.8,512
5.619141,-5627.16,-10868.83,512
5.621094,-5636.489,-10859.99,512
5.623047,-5637.899,-10866.11,512
5.625,-5650.016,-10872.37,512
5.626953,-5649.698,-10890.82,512
5.628906,-5641.06,-10892.51,512
5.630859,-5646.461,-10849.85,512
5.632812,-5666.337,-10857.36,512
5.634766,-5658.362,-10871.11,512
5.636719,-5659.586,-10865.11,512
5.638672,-5655.304,-10864,512
5.640625,-5643.475,-10861.51,512
5.642578,-5646.803,-10875.83,512
5.644531,-5648.105,-10876.5,512
5.646484,-5654.759,-10879.55,512
5.648438,-5679.226,-10885.44,512
5.650391,-5679.991,-10902.37,512
5.652344,-5662.763,-10844.46,512
5.654297,-5674.044,-10792.11,512
5.65625,-5678.899,-10833.17,512
5.658203,-5681.617,-10841.98,512
5.660156,-5672.103,-10864.03,512
5.662109,-5670.131,-10880.83,512
5.664062,-5665.606,-10850.82,512
5.666016,-5673.809,-10852.32,512
5.667969,-5680.416,-10848.83,512
5.669922,-5687.258,-10830.89,512
5.671875,-5683.917,-10823.66,512
5.673828,-5675.566,-10848.06,512
5.675781,-5672.745,-10835.47,512
5.677734,-5679.674,-10842.68,512
5.679688,-5675.655,-10866.81,512
5.681641,-5666.429,-10863.06,512
5.683594,-5672.803,-10866.2,512
5.685547,-5670.4,-10870.86,512
5.6875,-5668.218,-10863.42,512
5.689453,-5677.23,-10821,512
5.691406,-5677.272,-10839.35,512
5.693359,-5677.755,-10871.89,512
5.695312,-5686.456,-10883.65,512
5.697266,-5678.558,-10874.45,512
5.699219,-5677.435,-10874.6,512
5.701172,-5686.155,-10855.9,512
5.703125,-5690.993,-10864.69,512
5.705078,-5681.778,-10863.06,512
5.707031,-5676.578,-10847.94,512
5.708984,-5683.707,-10878.56,512
5.710938,-5681.686,-10882.35,512
5.712891,-5685.126,-10875.71,512
5.714844,-5690.984,-10922.81,512
5.716797,-5668.429,-10902.09,512
5.71875,-5662.574,-10883.47,512
5.720703,-5665.194,-10875.98,512
5.722656,-5676.015,-10838.17,512
5.724609,-5675.753,-10828.04,512
5.726562,-5688.526,-10829.39,512
5.728516,-5690.61,-10837.28,512
5.730469,-5700.331,-10848.26,512
5.732422,-5672.266,-10881.33,512
5.734375,-5669.916,-10912.33,512
5.736328,-5687.518,-10880.73,512
5.738281,-5680.586,-10862.48,512
5.740234,-5695.925,-10837.08,512
5.742188,-5695.874,-10829.48,512
5.744141,-5679.736,-10867.96,512
5.746094,-5684.998,-10854.05,512
5.748047,-5689.807,-10870.34,512
5.75,-5690.591,-10868.95,512
5.751953,-5678.24,-10869.46,512
5.753906,-5677.524,-10867.85,512
5.755859,-5675.739,-10852.88,512
5.757812,-5681.224,-10848.66,512
5.759766,-5680.773,-10864,512
5.761719,-5683.494,-10888.03,512
5.763672,-5688.13,-10867.83,512
5.765625,-5688.079,-10865.96,512
5.767578,-5678.182,-10848.05,512
5.769531,-5694.701,-10821.76,512
5.771484,-5686.595,-10838.9,512
5.773438,-5667.924,-10849.71,512
5.775391,-5672.428,-10837.97,512
5.777344,-5671.891,-10858.81,512
5.779297,-5672.431,-10890.26,512
5.78125,-5671.389,-10859.51,512
5.783203,-5680.206,-10824.18,512
5.785156,-5684.377,-10838.76,512
5.787109,-5686.09,-10860,512
5.789062,-5679.397,-10843.01,512
5.791016,-5678.981,-10837.01,512
5.792969,-5690.542,-10851.48,512
5.794922,-5692.151,-10864.39,512
5.796875,-5693.539,-10886.94,512
5.798828,-5685.134,-10888.05,512
5.800781,-5672.824,-10893.56,512
5.802734,-5673.694,-10883.52,512
5.804688,-5693.119,-10874.25,512
5.806641,-5688.602,-10866.89,512
5.808594,-5692.224,-10855.82,512
5.810547,-5693.714,-10879.75,512
5.8125,-5707.006,-10829.69,512
5.814453,-5694.824,-10834.05,512
5.816406,-5670.308,-10822.65,512
5.818359,-5672.82,-10835.16,512
5.820312,-5674.67,-10854.05,512
5.822266,-5669.959,-10841.41,512
5.824219,-5663.352,-10847.32,512
5.826172,-5665.168,-10852.19,512
5.828125,-5679.97,-10850.06,512
5.830078,-5682.77,-10856.35,512
5.832031,-5688.957,-10851.6,512
5.833984,-5677.257,-10834.28,512
5.835938,-5684.891,-10841.8,512
5.837891,-5689.929,-10831.87,512
5.839844,-5680.079,-10841.74,512
5.841797,-5684.217,-10871.86,512
5.84375,-5674.105,-10860.39,512
5.845703,-5659.619,-10857.05,512
5.847656,-5675.055,-10853.79,512
5.849609,-5674.682,-10834.33,512
5.851562,-5680.337,-10830.62,512
5.853516,-5681.237,-10831.75,512
5.855469,-5658.39,-10828.29,512
5.857422,-5669.201,-10841.47,512
5.859375,-5669.306,-10846.78,512
5.861328,-5662.256,-10842.08,512
5.863281,-5675.266,-10847.45,512
5.865234,-5684.094,-10862.36,512
5.867188,-5683.39,-10853.17,512
5.869141,-5685.466,-10857.29,512
5.871094,-5680.572,-10854.63,512
5.873047,-5673.329,-10846.21,512
5.875,-5680.599,-10867.43,512
5.876953,-5666.277,-10858.63,512
5.878906,-5675.168,-10837.67,512
5.880859,-5666.57,-10865.49,512
5.882812,-5664.427,-10865.22,512
5.884766,-5664.154,-10841.07,512
5.886719,-5659.09,-10881.6,512
5.888672,-5664.992,-10882.02,512
5.890625,-5669.123,-10867.86,512
5.892578,-5669.983,-10864.62,512
5.894531,-5667.669,-10844.69,512
5.896484,-5676.472,-10836.19,512
5.898438,-5675.534,-10825.57,512
5.900391,-5664.749,-10840.98,512
5.902344,-5665.433,-10852.9,512
5.904297,-5668.973,-10871.73,512
5.90625,-5679.155,-10839.18,512
5.908203,-5677.148,-10837.96,512
5.910156,-5682.366,-10849.98,512
5.912109,-5687.619,-10859.92,512
5.914062,-5687.425,-10872.34,512
5.916016,-5687.066,-10875.56,512
5.917969,-5688.566,-10874.08,512
5.919922,-5663.56,-10887.52,512
5.921875,-5655.428,-10923.97,512
5.923828,-5663.347,-10929.79,512
5.925781,-5667.438,-10910.57,512
5.927734,-5682.473,-10889.75,512
5.929688,-5714.408,-10814.24,512
5.931641,-5716.406,-10813.89,512
5.933594,-5707.109,-10866.41,512
5.935547,-5678.023,-10818.63,512
5.9375,-5671.163,-10842.74,512
5.939453,-5679.089,-10864.6,512
5.941406,-5674.225,-10865.1,512
5.943359,-5662.146,-10878.56,512
5.945312,-5671.262,-10875.16,512
5.947266,-5681.019,-10864.26,512
5.949219,-5686.907,-10835.6,512
5.951172,-5690.425,-10829.49,512
5.953125,-5673.331,-10840.57,512
5.955078,-5670.625,-10848.93,512
5.957031,-5673.854,-10834.54,512
5.958984,-5667.456,-10834.17,512
5.960938,-5670.917,-10848.14,512
5.962891,-5682.651,-10823.03,512
5.964844,-5675.292,-10850.28,512
5.966797,-5673.021,-10864.93,512
5.96875,-5673.385,-10849.18,512
5.970703,-5670.463,-10856.54,512
5.972656,-5662.155,-10860.2,512
5.974609,-5686.112,-10870,512
5.976562,-5687.536,-10836.91,512
5.978516,-5676.97,-10836.56,512
5.980469,-5681.5,-10845.99,512
5.982422,-5663.435,-10874.66,512
5.984375,-5665.428,-10860.05,512
5.986328,-5676.768,-10861.91,512
5.988281,-5673.891,-10854.76,512
5.990234,-5676.828,-10853.7,512
5.992188,-5665.927,-10841.83,512
5.994141,-5662.472,-10854.12,512
5.996094,-5660.049,-10855.87,512
5.998047,-5662.414,-10863.26,512
6,-5659.237,-10853.87,512
6.001953,-5674.174,-10859.08,512
6.003906,-5668.641,-10842.79,512
6.005859,-5666.12,-10860.21,512
6.007812,-5672.272,-10873.99,512
6.009766,-5677.289,-10872.96,512
6.011719,-5687.357,-10859.11,512
6.013672,-5673.87,-10849.65,512
6.015625,-5673.434,-10845.28,512
6.017578,-5681.436,-10844.66,512
6.019531,-5688.322,-10861.05,512
6.021484,-5684.298,-10853.52,512
6.023438,-5695.107,-10851.7,512
6.025391,-5678.181,-10850.92,512
6.027344,-5660.417,-10841.56,512
6.029297,-5676.583,-10862.11,512
6.03125,-5694.191,-10881.87,512
6.033203,-5681.607,-10892.68,512
6.035156,-5675.348,-10899.41,512
6.037109,-5679.244,-10859.98,512
6.039062,-5678.596,-10896.29,512
6.041016,-5670.623,-10939.03,512
6.042969,-5657.104,-10925.13,512
6.044922,-5661.913,-10915.48,512
6.046875,-5682.938,-10851.75,512
6.048828,-5696.688,-10821.13,512
6.050781,-5704.098,-10817.91,512
6.052734,-5699.325,-10817.54,512
6.054688,-5679.069,-10830.59,512
6.056641,-5695.013,-10855.87,512
6.058594,-5695.296,-10851.99,512
6.060547,-5692.134,-10865.55,512
6.0625,-5690.31,-10912.96,512
6.064453,-5692.297,-10923.15,512
6.066406,-5681.389,-10879.22,512
6.068359,-5700.011,-10901.15,512
6.070312,-5723.356,-10889.4,512
6.072266,-5702.377,-10889.46,512
6.074219,-5706.372,-10902.19,512
6.076172,-5706.224,-10914.1,512
6.078125,-5685.706,-10874.88,512
6.080078,-5693.233,-10835.26,512
6.082031,-5701.785,-10830.45,512
6.083984,-5686.962,-10856.9,512
6.085938,-5690.545,-10862.17,512
6.087891,-5719.238,-10872.65,512
6.089844,-5697.348,-10873.44,512
6.091797,-5684.502,-10864.08,512
6.09375,-5698.114,-10885.72,512
6.095703,-5688.557,-10862.52,512
6.097656,-5687.62,-10898.16,512
6.099609,-5678.003,-10933.27,512
6.101562,-5680.796,-10931.71,512
6.103516,-5679.876,-10910.28,512
6.105469,-5690.468,-10875.46,512
6.107422,-5693.902,-10860,512
6.109375,-5688.528,-10875.96,512
6.111328,-5689.136,-10876.37,512
6.113281,-5678.219,-10899.66,512
6.115234,-5668.153,-10909.51,512
6.117188,-5666.938,-10912.4,512
6.119141,-5682.5,-10912.94,512
6.121094,-5677.65,-10898.75,512
6.123047,-5659.01,-10876.05,512
6.125,-5657.473,-10865.64,512
6.126953,-5672.868,-10878.93,512
6.128906,-5674.548,-10896.17,512
6.130859,-5671.991,-10879.75,512
6.132812,-5681.214,-10917.12,512
6.134766,-5688.303,-10894.03,512
6.136719,-5669.858,-10897.26,512
6.138672,-5654.821,-10907.57,512
6.140625,-5657.289,-10930.23,512
6.142578,-5654.815,-10976.67,512
6.144531,-5661.806,-10927.68,512
6.146484,-5687.927,-10873.16,512
6.148438,-5703.797,-10844.81,512
6.150391,-5696.189,-10830.99,512
6.152344,-5690.809,-10854.09,512
6.154297,-5700.827,-10845.57,512
6.15625,-5695.438,-10841.9,512
6.158203,-5682.065,-10879.3,512
6.160156,-5684.88,-10912.07,512
6.162109,-5686.62,-10897.25,512
6.164062,-5680.535,-10859.72,512
6.166016,-5683.805,-10856.29,512
6.167969,-5683.979,-10860.03,512
6.169922,-5691.623,-10870.67,512
6.171875,-5702.496,-10882.98,512
6.173828,-5678.335,-10858.71,512
6.175781,-5687.127,-10854.14,512
6.177734,-5691.087,-10845.53,512
6.179688,-5692.92,-10857.66,512
6.181641,-5692.641,-10864.46,512
6.183594,-5685.185,-10900.41,512
6.185547,-5681.541,-10872.47,512
6.1875,-5663.492,-10834.82,512
6.189453,-5670.511,-10848.37,512
6.191406,-5675.43,-10845.12,512
6.193359,-5672.913,-10863.29,512
6.195312,-5680.755,-10866.08,512
6.197266,-5674.406,-10859.96,512
6.199219,-5673.66,-10873.43,512
6.201172,-5683.383,-10876.7,512
6.203125,-5673.335,-10882.55,512
6.205078,-5673.88,-10873,512
6.207031,-5685.085,-10876.01,512
6.208984,-5671.527,-10875.37,512
6.210938,-5675.008,-10870.03,512
6.212891,-5681.333,-10911.93,512
6.214844,-5684.796,-10875.31,512
6.216797,-5659.658,-10898.12,512
6.21875,-5674.102,-10904.28,512
6.220703,-5687.956,-10894.44,512
6.222656,-5669.614,-10921.57,512
6.224609,-5662.015,-10911.56,512
6.226562,-5656.936,-10873.04,512
6.228516,-5669.463,-10858.68,512
6.230469,-5679.689,-10777.7,512
6.232422,-5672.783,-10810.65,512
6.234375,-5633.476,-10853.74,512
6.236328,-5619.369,-10861.61,512
6.238281,-5608.755,-10860.32,512
6.240234,-5578.536,-10842.16,512
6.242188,-5561.404,-10846.68,512
6.244141,-5554.971,-10848.65,512
6.246094,-5564.642,-10880.29,512
6.248047,-5577.264,-10926.18,512
6.25,-5566.78,-10985,512
6.251953,-5569.746,-10961.45,512
6.253906,-5571.831,-10954.26,512
6.255859,-5584.457,-10951.56,512
6.257812,-5618.09,-10918.69,512
6.259766,-5639.121,-10884.32,512
6.261719,-5654.018,-10905.2,512
6.263672,-5657.286,-10924.28,512
6.265625,-5681.769,-10919.82,512
6.267578,-5693.394,-10918.18,512
6.269531,-5699.076,-10895.35,512
6.271484,-5726.368,-10899.56,512
6.273438,-5748.43,-10909.48,512
6.275391,-5750.217,-10902.56,512
6.277344,-5764.453,-10903.02,512
6.279297,-5771.398,-10930.52,512
6.28125,-5761.838,-10897.8,512
6.283203,-5788.215,-10841.04,512
6.285156,-5774.547,-10781.2,512
6.287109,-5757.508,-10779.85,512
6.289062,-5752.223,-10815.68,512
6.291016,-5724.937,-10810.87,512
6.292969,-5708.191,-10830.68,512
6.294922,-5693.832,-10843.25,512
6.296875,-5689.816,-10854.53,512
6.298828,-5680.665,-10853.13,512
6.300781,-5659.512,-10851.92,512
6.302734,-5665.443,-10858.24,512
6.304688,-5669.173,-10860.17,512
6.306641,-5665.448,-10867.19,512
6.308594,-5665.283,-10853.36,512
6.310547,-5670.437,-10858.42,512
6.3125,-5665.283,-10864.25,512
6.314453,-5653.969,-10841.06,512
6.316406,-5661.786,-10859.15,512
6.318359,-5664.075,-10861.47,512
6.320312,-5658.673,-10869.05,512
6.322266,-5649.062,-10847.83,512
6.324219,-5651.646,-10850.4,512
6.326172,-5641.212,-10849.73,512
6.328125,-5651.169,-10858.8,512
6.330078,-5647.365,-10903.74,512
6.332031,-5648.497,-10938.37,512
6.333984,-5659.825,-10898.08,512
6.335938,-5651.422,-10931.76,512
6.337891,-5658.774,-10856.57,512
6.339844,-5671.085,-10789.81,512
6.341797,-5668.295,-10834.37,512
6.34375,-5663.496,-10852.33,512
6.345703,-5659.872,-10871.21,512
6.347656,-5651.203,-10872.1,512
6.349609,-5653.055,-10870.18,512
6.351562,-5645.744,-10879.14,512
6.353516,-5648.974,-10862.09,512
6.355469,-5655.735,-10826.4,512
6.357422,-5651.548,-10848.76,512
6.359375,-5642.77,-10879.02,512
6.361328,-5658.495,-10919.22,512
6.363281,-5656.755,-10916.62,512
6.365234,-5648.835,-10895.06,512
6.367188,-5648.655,-10890.02,512
6.369141,-5640.222,-10876.59,512
6.371094,-5648.634,-10902.5,512
6.373047,-5672.135,-10851.56,512
6.375,-5681.897,-10828.05,512
6.376953,-5680.066,-10849.22,512
6.378906,-5676.526,-10856.21,512
6.380859,-5680.281,-10867.22,512
6.382812,-5679.331,-10888.83,512
6.384766,-5665.732,-10877.3,512
6.386719,-5662.938,-10871.03,512
6.388672,-5672.513,-10882.76,512
6.390625,-5665.616,-10882.16,512
6.392578,-5630.615,-10868.98,512
6.394531,-5636.638,-10912.18,512
6.396484,-5640.383,-10924.65,512
6.398438,-5641.242,-10913.4,512
6.400391,-5640.313,-10888.18,512
6.402344,-5624.979,-10854.81,512
6.404297,-5644.312,-10848.95,512
6.40625,-5650.779,-10853.93,512
6.408203,-5635.577,-10850.45,512
6.410156,-5635.201,-10861.11,512
6.412109,-5630.984,-10869.32,512
6.414062,-5623.872,-10884.39,512
6.416016,-5631.179,-10871.85,512
6.417969,-5617.69,-10875.52,512
6.419922,-5619.429,-10906.14,512
6.421875,-5598.826,-10909.51,512
6.423828,-5595.103,-10886.48,512
6.425781,-5605.743,-10916.02,512
6.427734,-5603.62,-10913.73,512
6.429688,-5598.98,-10907.15,512
6.431641,-5596.675,-10910.25,512
6.433594,-5618.085,-10895.4,512
6.435547,-5614.533,-10918.14,512
6.4375,-5598.797,-10911.58,512
6.439453,-5581.403,-10898.65,512
6.441406,-5582.726,-10900.96,512
6.443359,-5591.737,-10886.53,512
6.445312,-5595.199,-10865.92,512
6.447266,-5598.436,-10876.92,512
6.449219,-5572.707,-10900.87,512
6.451172,-5572.607,-10869.16,512
6.453125,-5575.405,-10854.61,512
6.455078,-5567.478,-10896.93,512
6.457031,-5565.184,-10901.35,512
6.458984,-5551.894,-10892.13,512
6.460938,-5554.608,-10889.27,512
6.462891,-5556.704,-10912.58,512
6.464844,-5560.676,-10922.3,512
6.466797,-5560.269,-10914.45,512
6.46875,-5553.3,-10909.09,512
6.470703,-5557.875,-10907.24,512
6.472656,-5561.812,-10918,512
6.474609,-5563.789,-10913.27,512
6.476562,-5544.992,-10896.96,512
6.478516,-5539.787,-10908.46,512
6.480469,-5530.206,-10911.05,512
6.482422,-5530.662,-10921.55,512
6.484375,-5540.809,-10928.89,512
6.486328,-5554.066,-10918.05,512
6.488281,-5539.874,-10905.7,512
6.490234,-5536.778,-10911.15,512
6.492188,-5558.297,-10918.38,512
6.494141,-5545.949,-10908.67,512
6.496094,-5541.34,-10911.31,512
6.498047,-5537.208,-10905.32,512
6.5,-5529.353,-10907.02,512
6.501953,-5543.485,-10909.57,512
6.503906,-5555.713,-10923.5,512
6.505859,-5556.421,-10920.14,512
6.507812,-5561.362,-10896.48,512
6.509766,-5550.363,-10887.43,512
6.511719,-5565.643,-10898.8,512
6.513672,-5576.968,-10915.85,512
6.515625,-5573.338,-10909.21,512
6.517578,-5573.005,-10884.9,512
6.519531,-5598.882,-10883.78,512
6.521484,-5593.744,-10890.03,512
6.523438,-5588.932,-10914.61,512
6.525391,-5586.933,-10960.7,512
6.527344,-5581.631,-10982.23,512
6.529297,-5615.542,-10942.55,512
6.53125,-5629.194,-10929,512
6.533203,-5646.384,-10836.3,512
6.535156,-5663.797,-10789.67,512
6.537109,-5662.718,-10825.96,512
6.539062,-5650.987,-10826.97,512
6.541016,-5666.809,-10827.7,512
6.542969,-5664.953,-10846.11,512
6.544922,-5672.487,-10852.95,512
6.546875,-5659.416,-10849.73,512
6.548828,-5646.648,-10835.21,512
6.550781,-5644.884,-10847.97,512
6.552734,-5648.041,-10843.26,512
6.554688,-5660.799,-10835.72,512
6.556641,-5678.69,-10857.93,512
6.558594,-5686.361,-10864.32,512
6.560547,-5669.032,-10861.8,512
6.5625,-5670.989,-10862.31,512
6.564453,-5671.011,-10869.16,512
6.566406,-5685.437,-10875.54,512
6.568359,-5680.279,-10878.95,512
6.570312,-5683.064,-10876.33,512
6.572266,-5684.642,-10877.43,512
6.574219,-5694.277,-10870.54,512
6.576172,-5694.772,-10861.42,512
6.578125,-5697.432,-10878.35,512
6.580078,-5692.516,-10882.57,512
6.582031,-5690.275,-10883.08,512
6.583984,-5680.871,-10876.42,512
6.585938,-5673.281,-10874.13,512
6.587891,-5676.472,-10871.45,512
6.589844,-5685.193,-10894.53,512
6.591797,-5691.752,-10882.4,512
6.59375,-5680.674,-10864.94,512
6.595703,-5689.878,-10893.09,512
6.597656,-5691.504,-10908.09,512
6.599609,-5690.548,-10930.08,512
6.601562,-5682.328,-10951.38,512
6.603516,-5675.181,-10948.44,512
6.605469,-5676.164,-10891.88,512
6.607422,-5684.392,-10820.21,512
6.609375,-5691.432,-10813.69,512
6.611328,-5686.132,-10856.66,512
6.613281,-5681.435,-10901.52,512
6.615234,-5687.883,-10871.82,512
6.617188,-5673.857,-10847.37,512
6.619141,-5677.516,-10893.11,512
6.621094,-5669.823,-10891.43,512
6.623047,-5675.432,-10887.06,512
6.625,-5666.749,-10880.36,512
6.626953,-5679.652,-10847.45,512
6.628906,-5693.168,-10838.11,512
6.630859,-5677.201,-10835.09,512
6.632812,-5680.711,-10844.99,512
6.634766,-5676.973,-10871.37,512
6.636719,-5666.611,-10869.05,512
6.638672,-5662.866,-10844.78,512
6.640625,-5662.726,-10850.49,512
6.642578,-5670.948,-10865.45,512
6.644531,-5670.742,-10857.57,512
6.646484,-5672.968,-10854.27,512
6.648438,-5669.622,-10901.89,512
6.650391,-5683.775,-10916,512
6.652344,-5684.06,-10859.51,512
6.654297,-5673.438,-10865.12,512
6.65625,-5704.778,-10870.67,512
6.658203,-5714.185,-10859.93,512
6.660156,-5702.468,-10852.1,512
6.662109,-5697.164,-10847.74,512
6.664062,-5701.999,-10884.31,512
6.666016,-5693.075,-10892.37,512
6.667969,-5689.556,-10872.91,512
6.669922,-5697.373,-10894.22,512
6.671875,-5690.153,-10904.39,512
6.673828,-5677.697,-10905.51,512
6.675781,-5670.899,-10868.83,512
6.677734,-5678.095,-10875.51,512
6.679688,-5682.685,-10896.34,512
6.681641,-5690.578,-10869.74,512
6.683594,-5698.901,-10877.95,512
6.685547,-5691.886,-10875.33,512
6.6875,-5680.839,-10872.9,512
6.689453,-5682.314,-10855.1,512
6.691406,-5693.795,-10862.02,512
6.693359,-5669.28,-10857.53,512
6.695312,-5681.682,-10864.2,512
6.697266,-5691.247,-10893.43,512
6.699219,-5682.81,-10900.42,512
6.701172,-5678.879,-10897.37,512
6.703125,-5677.584,-10870.75,512
6.705078,-5684.778,-10828.47,512
6.707031,-5672.587,-10855.13,512
6.708984,-5664.274,-10875.22,512
6.710938,-5657.48,-10876.54,512
6.712891,-5646.256,-10883.84,512
6.714844,-5654.438,-10886.97,512
6.716797,-5667.657,-10880.27,512
6.71875,-5672.891,-10853.35,512
6.720703,-5661.136,-10807.72,512
6.722656,-5667.899,-10800.63,512
6.724609,-5670.247,-10820.47,512
6.726562,-5668.485,-10832.91,512
6.728516,-5668.186,-10831.02,512
6.730469,-5674.449,-10847.38,512
6.732422,-5684.708,-10881.52,512
6.734375,-5678.085,-10862.87,512
6.736328,-5682.958,-10857.8,512
6.738281,-5679.628,-10858.83,512
6.740234,-5682.565,-10859.99,512
6.742188,-5690.833,-10871.93,512
6.744141,-5695.852,-10898.22,512
6.746094,-5691.623,-10897.1,512
6.748047,-5676.984,-10868.56,512
6.75,-5674.704,-10865.29,512
6.751953,-5683.622,-10861.56,512
6.753906,-5681.895,-10861.77,512
6.755859,-5673.757,-10854.42,512
6.757812,-5686.106,-10885.26,512
6.759766,-5688.488,-10888.98,512
6.761719,-5682.867,-10876.84,512
6.763672,-5684.433,-10900.34,512
6.765625,-5688.084,-10895.26,512
6.767578,-5698.036,-10890.69,512
6.769531,-5698.285,-10906.54,512
6.771484,-5691.744,-10888.13,512
6.773438,-5688.81,-10891.91,512
6.775391,-5680.067,-10879.7,512
6.777344,-5691.864,-10869.32,512
6.779297,-5690.909,-10866.08,512
6.78125,-5710.689,-10833.91,512
6.783203,-5716.016,-10857.36,512
6.785156,-5703.854,-10849.73,512
6.787109,-5701.227,-10887.24,512
6.789062,-5690.477,-10895.01,512
6.791016,-5689.369,-10900.91,512
6.792969,-5688.4,-10890.43,512
6.794922,-5690.007,-10870.03,512
6.796875,-5697.153,-10851.31,512
6.798828,-5689.669,-10844,512
6.800781,-5681.761,-10852.11,512
6.802734,-5687.358,-10851.7,512
6.804688,-5689.496,-10849.85,512
6.806641,-5690.479,-10833.98,512
6.808594,-5670.732,-10868.96,512
6.810547,-5687.775,-10852.48,512
6.8125,-5687.471,-10829.71,512
6.814453,-5676.425,-10850.3,512
6.816406,-5681.761,-10873.94,512
6.818359,-5684.927,-10850.54,512
6.820312,-5691.653,-10857.12,512
6.822266,-5670.113,-10844.88,512
6.824219,-5690.761,-10850.53,512
6.826172,-5691.719,-10856.12,512
6.828125,-5701.321,-10884.03,512
6.830078,-5696.866,-10910.32,512
6.832031,-5686.877,-10907.31,512
6.833984,-5681.199,-10922.23,512
6.835938,-5688.901,-10909.99,512
6.837891,-5670.907,-10861.26,512
6.839844,-5690.359,-10865.07,512
6.841797,-5710.52,-10836.99,512
6.84375,-5698.512,-10815.39,512
6.845703,-5713.205,-10857.22,512
6.847656,-5709.531,-10852.62,512
6.849609,-5692.208,-10852.68,512
6.851562,-5696.037,-10866.1,512
6.853516,-5702.078,-10885.56,512
6.855469,-5703.435,-10873.57,512
6.857422,-5695.778,-10889.82,512
6.859375,-5681.306,-10901.13,512
6.861328,-5686.72,-10921.66,512
6.863281,-5683.9,-10904.4,512
6.865234,-5679.846,-10918.42,512
6.867188,-5685.156,-10902.11,512
6.869141,-5698.579,-10866.57,512
6.871094,-5695.125,-10853,512
6.873047,-5708.164,-10856.75,512
6.875,-5690.182,-10842.83,512
6.876953,-5690.102,-10810.13,512
6.878906,-5702.653,-10856.08,512
6.880859,-5685.85,-10880.56,512
6.882812,-5678.425,-10875.45,512
6.884766,-5680.8,-10859.57,512
6.886719,-5689.185,-10839.29,512
6.888672,-5681.204,-10832.85,512
6.890625,-5693.929,-10848.66,512
6.892578,-5695.512,-10882.54,512
6.894531,-5688.373,-10884.83,512
6.896484,-5672.95,-10864.88,512
6.898438,-5676.319,-10856.81,512
6.900391,-5683.54,-10856.37,512
6.902344,-5688.992,-10842.62,512
6.904297,-5689.167,-10844.42,512
6.90625,-5675.539,-10877.18,512
6.908203,-5686.298,-10877.8,512
6.910156,-5671.454,-10846.24,512
6.912109,-5660.827,-10845.16,512
6.914062,-5666.856,-10833.42,512
6.916016,-5667.583,-10860.71,512
6.917969,-5669.909,-10869.04,512
6.919922,-5663.972,-10859.96,512
6.921875,-5668.288,-10855.16,512
6.923828,-5673.472,-10848.73,512
6.925781,-5672.292,-10868.82,512
6.927734,-5680.807,-10871.31,512
6.929688,-5682.67,-10874.09,512
6.931641,-5678.745,-10881.04,512
6.933594,-5679.703,-10898.92,512
6.935547,-5674.304,-10884.48,512
6.9375,-5692.168,-10896.53,512
6.939453,-5671.053,-10911.29,512
6.941406,-5663.791,-10918.35,512
6.943359,-5661.459,-10910.71,512
6.945312,-5665.179,-10870.32,512
6.947266,-5695.821,-10849.16,512
6.949219,-5700.946,-10859.27,512
6.951172,-5695.193,-10914.23,512
6.953125,-5691.044,-10907.26,512
6.955078,-5696.92,-10908.22,512
6.957031,-5698.709,-10890.48,512
6.958984,-5687.347,-10878.65,512
6.960938,-5698.901,-10877.91,512
6.962891,-5695.066,-10859.53,512
6.964844,-5700.248,-10858.35,512
6.966797,-5706.529,-10888.06,512
6.96875,-5694.87,-10878.5,512
6.970703,-5673.555,-10864.55,512
6.972656,-5680.34,-10883.33,512
6.974609,-5686.473,-10881.95,512
6.976562,-5672.455,-10897.29,512
6.978516,-5685.661,-10918.79,512
6.980469,-5686.037,-10942.94,512
6.982422,-5683.361,-10945.21,512
6.984375,-5680.637,-10930.7,512
6.986328,-5684.644,-10887.5,512
6.988281,-5699.598,-10884.23,512
6.990234,-5700.058,-10908.32,512
6.992188,-5702.782,-10918.21,512
6.994141,-5703.697,-10908.29,512
6.996094,-5699.204,-10903.76,512
6.998047,-5703.019,-10917.65,512
7,-5708.971,-10916.87,512
7.001953,-5731.683,-10948.86,512
7.003906,-5701.3,-10926.9,512
7.005859,-5688.909,-10908.69,512
7.007812,-5696.632,-10925.6,512
7.009766,-5676.028,-10893.94,512
7.011719,-5700.318,-10907.84,512
7.013672,-5708.488,-10908.72,512
7.015625,-5712.669,-10892.56,512
7.017578,-5714.503,-10887.79,512
7.019531,-5719.229,-10899.05,512
7.021484,-5723.748,-10904.61,512
7.023438,-5718.89,-10883.61,512
7.025391,-5719.74,-10912.01,512
7.027344,-5718.764,-10946.13,512
7.029297,-5713.633,-10949.79,512
7.03125,-5718.282,-10937.07,512
7.033203,-5727.824,-10914.79,512
7.035156,-5735.029,-10891.62,512
7.037109,-5729.575,-10858.33,512
7.039062,-5733.125,-10880.26,512
7.041016,-5729.792,-10885.24,512
7.042969,-5732.296,-10902.58,512
7.044922,-5730.891,-10904.35,512
7.046875,-5718.076,-10934.03,512
7.048828,-5710.667,-10934.28,512
7.050781,-5711.889,-10899.9,512
7.052734,-5712.784,-10948.41,512
7.054688,-5725.604,-10954.24,512
7.056641,-5711.397,-10920.1,512
7.058594,-5718.228,-10893.31,512
7.060547,-5716.633,-10908.61,512
7.0625,-5722.418,-10892.14,512
7.064453,-5728.574,-10876.2,512
7.066406,-5732.457,-10881.73,512
7.068359,-5731.836,-10865.67,512
7.070312,-5726.182,-10873.17,512
7.072266,-5721.939,-10868.65,512
7.074219,-5712.528,-10872.24,512
7.076172,-5719.425,-10881.77,512
7.078125,-5715.308,-10909.14,512
7.080078,-5700.938,-10908.03,512
7.082031,-5709.751,-10901.65,512
7.083984,-5708.036,-10906.04,512
7.085938,-5706.288,-10890.04,512
7.087891,-5707.361,-10865.85,512
7.089844,-5694.908,-10860.39,512
7.091797,-5692.896,-10842.23,512
7.09375,-5700.59,-10841.69,512
7.095703,-5677.732,-10851.29,512
7.097656,-5665.566,-10855.76,512
7.099609,-5644.969,-10858.32,512
7.101562,-5612.236,-10867.8,512
7.103516,-5584.335,-10875.51,512
7.105469,-5588.089,-10895.53,512
7.107422,-5580.347,-10907.57,512
7.109375,-5572.666,-10918.97,512
7.111328,-5595.581,-10943.37,512
7.113281,-5594.198,-10945.76,512
7.115234,-5608.456,-10969.63,512
7.117188,-5629.699,-10969.27,512
7.119141,-5662.834,-10955.75,512
7.121094,-5688.961,-10945.83,512
7.123047,-5688.104,-10926.79,512
7.125,-5697.298,-10941.13,512
7.126953,-5716.61,-10953.11,512
7.128906,-5730.679,-10965.16,512
7.130859,-5729.325,-10966.91,512
7.132812,-5738.214,-10941.59,512
7.134766,-5766.769,-10964.18,512
7.136719,-5787.29,-10957.84,512
7.138672,-5821.458,-10932.75,512
7.140625,-5846.811,-10917.02,512
7.142578,-5833.351,-10931.58,512
7.144531,-5813.205,-10928.46,512
7.146484,-5797.43,-10932.41,512
7.148438,-5782.84,-10922.25,512
