timestamp,exg1,exg2,srate
0,-4672.423,-9212.232,512
0.001953125,-4671.404,-9227.269,512
0.00390625,-4689.773,-9240.604,512
0.005859375,-4668.645,-9211.938,512
0.0078125,-4667.044,-9221.079,512
0.009765625,-4673.866,-9243.674,512
0.01171875,-4683.593,-9266.839,512
0.01367188,-4675.657,-9254.203,512
0.015625,-4668.607,-9242.068,512
0.01757812,-4667.012,-9218.225,512
0.01953125,-4680.262,-9225.724,512
0.02148438,-4682.696,-9229.603,512
0.0234375,-4660.034,-9220.758,512
0.02539062,-4661.368,-9231.967,512
0.02734375,-4662.065,-9235.372,512
0.02929688,-4680.69,-9239.275,512
0.03125,-4686.121,-9233.657,512
0.03320312,-4673.719,-9203.453,512
0.03515625,-4691.953,-9197.933,512
0.03710938,-4692.49,-9213.211,512
0.0390625,-4685.633,-9212.086,512
0.04101562,-4676.238,-9206.122,512
0.04296875,-4696,-9231.258,512
0.04492188,-4689.075,-9242.838,512
0.046875,-4664.103,-9215.357,512
0.04882812,-4671.089,-9243.031,512
0.05078125,-4669.72,-9289.258,512
0.05273438,-4667.546,-9243.587,512
0.0546875,-4665.483,-9248.278,512
0.05664062,-4663.635,-9239.574,512
0.05859375,-4669.788,-9249.032,512
0.06054688,-4677.011,-9234.451,512
0.0625,-4666.461,-9211.663,512
0.06445312,-4665.843,-9212.373,512
0.06640625,-4669.044,-9237.022,512
0.06835938,-4673.116,-9228.18,512
0.0703125,-4676.584,-9250.644,512
0.07226562,-4665.213,-9223.09,512
0.07421875,-4677.416,-9221.183,512
0.07617188,-4673.245,-9235.025,512
0.078125,-4674.271,-9193.659,512
0.08007812,-4682.57,-9215.607,512
0.08203125,-4676.709,-9231.427,512
0.08398438,-4672.98,-9243.412,512
0.0859375,-4663.206,-9229.381,512
0.08789062,-4667.28,-9221.117,512
0.08984375,-4672.899,-9212.701,512
0.09179688,-4679.855,-9221.114,512
0.09375,-4674.205,-9213.167,512
0.09570312,-4669.619,-9234.888,512
0.09765625,-4665.255,-9242.531,512
0.09960938,-4653.25,-9206.811,512
0.1015625,-4665.334,-9195.151,512
0.1035156,-4661.051,-9204.064,512
0.1054688,-4659.837,-9207.53,512
0.1074219,-4659.159,-9222.877,512
0.109375,-4660.483,-9237.332,512
0.1113281,-4661.646,-9227.188,512
0.1132812,-4658.411,-9230.228,512
0.1152344,-4658.416,-9238.927,512
0.1171875,-4661.842,-9231.921,512
0.1191406,-4650.372,-9204.371,512
0.1210938,-4658.029,-9218.429,512
0.1230469,-4677.04,-9208.277,512
0.125,-4667.358,-9197.592,512
0.1269531,-4661.434,-9210.745,512
0.1289062,-4668.484,-9229.849,512
0.1308594,-4668.758,-9252.332,512
0.1328125,-4664.907,-9255.912,512
0.1347656,-4654.377,-9233.687,512
0.1367188,-4640.182,-9200.239,512
0.1386719,-4650.86,-9205.362,512
0.140625,-4646.121,-9238.08,512
0.1425781,-4646.011,-9238.483,512
0.1445312,-4667.884,-9245.018,512
0.1464844,-4674.619,-9262.13,512
0.1484375,-4669.111,-9254.551,512
0.1503906,-4675.411,-9250.853,512
0.1523438,-4651.472,-9241.108,512
0.1542969,-4659.619,-9271.679,512
0.15625,-4661.882,-9239.999,512
0.1582031,-4652.189,-9231.487,512
0.1601562,-4660.269,-9246.792,512
0.1621094,-4656.854,-9239.234,512
0.1640625,-4663.173,-9251.97,512
0.1660156,-4667.838,-9264.812,512
0.1679688,-4663.515,-9272.777,512
0.1699219,-4654.745,-9231.375,512
0.171875,-4662.606,-9235.588,512
0.1738281,-4672.078,-9246.624,512
0.1757812,-4664.029,-9229.254,512
0.1777344,-4659.75,-9240.779,512
0.1796875,-4665.772,-9290.409,512
0.1816406,-4655.514,-9246.404,512
0.1835938,-4649.755,-9238.295,512
0.1855469,-4666.422,-9188.211,512
0.1875,-4669.712,-9182.293,512
0.1894531,-4670.161,-9199.855,512
0.1914062,-4674.475,-9210.986,512
0.1933594,-4670.631,-9237.039,512
0.1953125,-4691.698,-9288.558,512
0.1972656,-4688.463,-9250.182,512
0.1992188,-4673.553,-9235.357,512
0.2011719,-4667.336,-9222.798,512
0.203125,-4674.833,-9246.789,512
0.2050781,-4670.848,-9275.147,512
0.2070312,-4662.613,-9269.652,512
0.2089844,-4683.3,-9230.906,512
0.2109375,-4695.755,-9235.432,512
0.2128906,-4686.391,-9209.258,512
0.2148438,-4689.35,-9221.647,512
0.2167969,-4674.129,-9213.877,512
0.21875,-4666.247,-9218.835,512
0.2207031,-4677.002,-9228.977,512
0.2226562,-4669.125,-9225.145,512
0.2246094,-4667.046,-9213.797,512
0.2265625,-4664.378,-9219.522,512
0.2285156,-4672.195,-9231.165,512
0.2304688,-4680.295,-9262.426,512
0.2324219,-4661.394,-9253.513,512
0.234375,-4657.441,-9266.586,512
0.2363281,-4660.884,-9233.438,512
0.2382812,-4678.086,-9174.933,512
0.2402344,-4684.818,-9230.857,512
0.2421875,-4657.45,-9202.754,512
0.2441406,-4664.376,-9219.416,512
0.2460938,-4662.941,-9225.075,512
0.2480469,-4668.877,-9231.089,512
0.25,-4674.159,-9240.46,512
0.2519531,-4666.186,-9231.367,512
0.2539062,-4677.826,-9225.105,512
0.2558594,-4676.318,-9207.296,512
0.2578125,-4682.35,-9210.14,512
0.2597656,-4682.776,-9211.741,512
0.2617188,-4675.446,-9236.879,512
0.2636719,-4662.917,-9236.105,512
0.265625,-4654.331,-9242.095,512
0.2675781,-4648.261,-9246.861,512
0.2695312,-4626.073,-9220.589,512
0.2714844,-4623.268,-9213.403,512
0.2734375,-4599.795,-9215.49,512
0.2753906,-4586.425,-9214.57,512
0.2773438,-4564.324,-9207.171,512
0.2792969,-4543.487,-9233.515,512
0.28125,-4529.821,-9248.74,512
0.2832031,-4522.872,-9255.825,512
0.2851562,-4542.654,-9298.022,512
0.2871094,-4555.906,-9299.113,512
0.2890625,-4535.341,-9330.18,512
0.2910156,-4535.75,-9340.541,512
0.2929688,-4573.074,-9319.858,512
0.2949219,-4609.895,-9301.637,512
0.296875,-4649.822,-9278.541,512
0.2988281,-4653.355,-9288.222,512
0.3007812,-4654.886,-9293.656,512
0.3027344,-4665.664,-9293.358,512
0.3046875,-4670.472,-9303.146,512
0.3066406,-4661.705,-9298.03,512
0.3085938,-4692.536,-9299.018,512
0.3105469,-4718.374,-9278.735,512
0.3125,-4751.728,-9241.766,512
0.3144531,-4774.237,-9220.947,512
0.3164062,-4773.947,-9220.134,512
0.3183594,-4759.334,-9173.394,512
0.3203125,-4745.14,-9217.47,512
0.3222656,-4758.082,-9233.235,512
0.3242188,-4748.732,-9229.162,512
0.3261719,-4719.038,-9210.093,512
0.328125,-4705.883,-9188.233,512
0.3300781,-4687.786,-9208.737,512
0.3320312,-4684.012,-9221.461,512
0.3339844,-4667.38,-9230.737,512
0.3359375,-4664.998,-9213.363,512
0.3378906,-4658.934,-9213.824,512
0.3398438,-4655.028,-9215.849,512
0.3417969,-4649.799,-9229.975,512
0.34375,-4654.687,-9228.857,512
0.3457031,-4649.836,-9216.671,512
0.3476562,-4645.257,-9221.494,512
0.3496094,-4629.223,-9228.3,512
0.3515625,-4618.765,-9238.795,512
0.3535156,-4622.881,-9273.075,512
0.3554688,-4626.654,-9280.227,512
0.3574219,-4632.489,-9296.296,512
0.359375,-4657.987,-9253.979,512
0.3613281,-4661.486,-9163.612,512
0.3632812,-4657.318,-9216.91,512
0.3652344,-4662.68,-9204.666,512
0.3671875,-4644.85,-9196.183,512
0.3691406,-4645.113,-9212.16,512
0.3710938,-4642.561,-9217.172,512
0.3730469,-4652.196,-9235.691,512
0.375,-4644.071,-9240.912,512
0.3769531,-4637.859,-9268.704,512
0.3789062,-4640.491,-9244.581,512
0.3808594,-4634.276,-9246.901,512
0.3828125,-4634.576,-9245.396,512
0.3847656,-4628.13,-9239.51,512
0.3867188,-4628.344,-9235.27,512
0.3886719,-4632.558,-9232.078,512
0.390625,-4638.229,-9238.789,512
0.3925781,-4635.467,-9208.411,512
0.3945312,-4633.989,-9222.822,512
0.3964844,-4624.162,-9230.767,512
0.3984375,-4645.23,-9213.804,512
0.4003906,-4639.122,-9232.116,512
0.4023438,-4644.05,-9227.023,512
0.4042969,-4633.29,-9224.418,512
0.40625,-4629.783,-9225.014,512
0.4082031,-4628.247,-9206.518,512
0.4101562,-4636.012,-9237.418,512
0.4121094,-4647.795,-9250.838,512
0.4140625,-4644.321,-9233.578,512
0.4160156,-4633.3,-9239.394,512
0.4179688,-4626.021,-9244.378,512
0.4199219,-4620.915,-9262.508,512
0.421875,-4625.474,-9258.896,512
0.4238281,-4628.195,-9223.698,512
0.4257812,-4626.431,-9235.091,512
0.4277344,-4625.237,-9256.012,512
0.4296875,-4637.077,-9248.908,512
0.4316406,-4632.067,-9261.399,512
0.4335938,-4630.776,-9246.492,512
0.4355469,-4622.817,-9227.979,512
0.4375,-4623.522,-9224.534,512
0.4394531,-4634.857,-9229.009,512
0.4414062,-4616.013,-9217.851,512
0.4433594,-4609.708,-9209.631,512
0.4453125,-4627.979,-9258.11,512
0.4472656,-4613.621,-9260.992,512
0.4492188,-4620.472,-9250.038,512
0.4511719,-4602.329,-9247.029,512
0.453125,-4600.095,-9247.469,512
0.4550781,-4610.182,-9237.185,512
0.4570312,-4610.988,-9248.045,512
0.4589844,-4613.507,-9250.668,512
0.4609375,-4606.704,-9274.641,512
0.4628906,-4600.112,-9230.122,512
0.4648438,-4595.258,-9237.595,512
0.4667969,-4584.421,-9218.156,512
0.46875,-4577.341,-9230.04,512
0.4707031,-4581.727,-9244.805,512
0.4726562,-4578.304,-9230.501,512
0.4746094,-4568.279,-9212.118,512
0.4765625,-4567.049,-9240.822,512
0.4785156,-4567.386,-9244.182,512
0.4804688,-4564.679,-9243.308,512
0.4824219,-4568.773,-9252.429,512
0.484375,-4559.993,-9243.313,512
0.4863281,-4557.042,-9276.028,512
0.4882812,-4548.029,-9257.887,512
0.4902344,-4540.02,-9286.705,512
0.4921875,-4534.708,-9282.416,512
0.4941406,-4537.83,-9241.392,512
0.4960938,-4533.865,-9237.33,512
0.4980469,-4524.39,-9245.942,512
0.5,-4519.23,-9221.907,512
0.5019531,-4520.73,-9241.927,512
0.5039062,-4512.498,-9248.067,512
0.5058594,-4502.827,-9278.908,512
0.5078125,-4500.951,-9311.767,512
0.5097656,-4504.514,-9322.027,512
0.5117188,-4484.91,-9284.161,512
0.5136719,-4519.219,-9245.851,512
0.515625,-4514.633,-9250.621,512
0.5175781,-4511.778,-9250.344,512
0.5195312,-4521.409,-9258.623,512
0.5214844,-4520.442,-9255.359,512
0.5234375,-4505.32,-9229.343,512
0.5253906,-4503.938,-9251.576,512
0.5273438,-4510.719,-9261.789,512
0.5292969,-4526.357,-9271.03,512
0.53125,-4511.618,-9257.894,512
0.5332031,-4515.62,-9248.802,512
0.5351562,-4517.207,-9268.002,512
0.5371094,-4520.501,-9258.882,512
0.5390625,-4524.02,-9242.513,512
0.5410156,-4530.505,-9260.831,512
0.5429688,-4536.5,-9246.943,512
0.5449219,-4542.381,-9261.331,512
0.546875,-4554.965,-9266.451,512
0.5488281,-4555.065,-9272.879,512
0.5507812,-4567.32,-9247.12,512
0.5527344,-4571.421,-9232.626,512
0.5546875,-4586.317,-9255.025,512
0.5566406,-4583.85,-9222.305,512
0.5585938,-4573.072,-9218.223,512
0.5605469,-4595.253,-9240.055,512
0.5625,-4607.576,-9231.402,512
0.5644531,-4608.638,-9235.897,512
0.5664062,-4591.758,-9235.996,512
0.5683594,-4606.635,-9240.14,512
0.5703125,-4611.654,-9223.676,512
0.5722656,-4612.747,-9216.248,512
0.5742188,-4617.325,-9213.902,512
0.5761719,-4619.293,-9225.267,512
0.578125,-4615.949,-9241.798,512
0.5800781,-4628.752,-9226.875,512
0.5820312,-4622.381,-9262.077,512
0.5839844,-4617.717,-9234.956,512
0.5859375,-4616.844,-9190.59,512
0.5878906,-4630.182,-9220.029,512
0.5898438,-4644.296,-9245.012,512
0.5917969,-4637.385,-9262.36,512
0.59375,-4648.695,-9247.877,512
0.5957031,-4664.582,-9223.887,512
0.5976562,-4653.142,-9214.909,512
0.5996094,-4643.394,-9219.582,512
0.6015625,-4659.999,-9235.501,512
0.6035156,-4651.403,-9220.171,512
0.6054688,-4652.64,-9225.22,512
0.6074219,-4643.301,-9207.38,512
0.609375,-4648.599,-9199.071,512
0.6113281,-4649.842,-9213.488,512
0.6132812,-4656.94,-9225.447,512
0.6152344,-4644.84,-9221.674,512
0.6171875,-4648.371,-9212.604,512
0.6191406,-4655.314,-9212.538,512
0.6210938,-4652.916,-9226.788,512
0.6230469,-4665.512,-9213.794,512
0.625,-4668.263,-9217.911,512
0.6269531,-4660.394,-9236.928,512
0.6289062,-4677.999,-9235.585,512
0.6308594,-4665.396,-9231.826,512
0.6328125,-4658.883,-9223.655,512
0.6347656,-4654.189,-9214.487,512
0.6367188,-4641.12,-9204.967,512
0.6386719,-4655.354,-9218.024,512
0.640625,-4668.354,-9228.617,512
0.6425781,-4670.449,-9231.043,512
0.6445312,-4657.32,-9225.188,512
0.6464844,-4649.004,-9240.922,512
0.6484375,-4637.493,-9246.444,512
0.6503906,-4631.698,-9268.496,512
0.6523438,-4646.914,-9255.2,512
0.6542969,-4640.794,-9271.915,512
0.65625,-4638.923,-9266.426,512
0.6582031,-4654.39,-9213.674,512
0.6601562,-4650.736,-9233.22,512
0.6621094,-4654.89,-9191.941,512
0.6640625,-4678.465,-9210.891,512
0.6660156,-4663.719,-9209.551,512
0.6679688,-4666.366,-9206.755,512
0.6699219,-4656.131,-9217.298,512
0.671875,-4653.679,-9221.445,512
0.6738281,-4647.608,-9227.89,512
0.6757812,-4655.155,-9257.302,512
0.6777344,-4644.066,-9241.861,512
0.6796875,-4655.467,-9273.36,512
0.6816406,-4640.783,-9262.197,512
0.6835938,-4635.397,-9259.539,512
0.6855469,-4658.633,-9254.335,512
0.6875,-4654.823,-9240.303,512
0.6894531,-4668.356,-9190.601,512
0.6914062,-4657.777,-9186.604,512
0.6933594,-4646.932,-9204.64,512
0.6953125,-4657.886,-9227.922,512
0.6972656,-4650.517,-9221.53,512
0.6992188,-4647.139,-9215.511,512
0.7011719,-4634.321,-9247.98,512
0.703125,-4637.087,-9247.123,512
0.7050781,-4647.821,-9237.438,512
0.7070312,-4642.489,-9218.211,512
0.7089844,-4647.725,-9220.396,512
0.7109375,-4647.019,-9218.499,512
0.7128906,-4636.038,-9212.12,512
0.7148438,-4639.985,-9208.16,512
0.7167969,-4654.156,-9199.294,512
0.71875,-4644.179,-9209.871,512
0.7207031,-4647.951,-9220.596,512
0.7226562,-4646.675,-9233.153,512
0.7246094,-4635.391,-9221.47,512
0.7265625,-4640.406,-9234.7,512
0.7285156,-4654.863,-9225.405,512
0.7304688,-4655.108,-9227.521,512
0.7324219,-4665.031,-9208.283,512
0.734375,-4655.912,-9207.814,512
0.7363281,-4657.608,-9213.479,512
0.7382812,-4659.497,-9216.147,512
0.7402344,-4649.791,-9217.376,512
0.7421875,-4645.215,-9210.073,512
0.7441406,-4652.928,-9220.936,512
0.7460938,-4648.207,-9219.422,512
0.7480469,-4641.997,-9222.492,512
0.75,-4642.882,-9238.753,512
0.7519531,-4651.749,-9283.204,512
0.7539062,-4660.791,-9255.402,512
0.7558594,-4658.044,-9210.322,512
0.7578125,-4663.2,-9211.47,512
0.7597656,-4657.216,-9198.98,512
0.7617188,-4658.051,-9252.372,512
0.7636719,-4660.678,-9226.718,512
0.765625,-4642.829,-9199.845,512
0.7675781,-4645.147,-9234.824,512
0.7695312,-4644.943,-9229.719,512
0.7714844,-4652.636,-9263.893,512
0.7734375,-4669.288,-9253.519,512
0.7753906,-4661.753,-9210.395,512
0.7773438,-4668.648,-9189.704,512
0.7792969,-4674.102,-9200.43,512
0.78125,-4685.037,-9220.236,512
0.7832031,-4688.418,-9240.913,512
0.7851562,-4649.472,-9216.965,512
0.7871094,-4660.39,-9191.733,512
0.7890625,-4668.632,-9227.188,512
0.7910156,-4677.558,-9227.596,512
0.7929688,-4667.077,-9201.038,512
0.7949219,-4661.412,-9244.691,512
0.796875,-4666.052,-9250.767,512
0.7988281,-4657.332,-9213.27,512
0.8007812,-4666.11,-9218.044,512
0.8027344,-4655.156,-9219.16,512
0.8046875,-4657.688,-9207.799,512
0.8066406,-4670.636,-9231.696,512
0.8085938,-4689.122,-9220.773,512
0.8105469,-4690.244,-9228.244,512
0.8125,-4656.961,-9229.094,512
0.8144531,-4668.018,-9225.034,512
0.8164062,-4663.05,-9233.503,512
0.8183594,-4661.136,-9218.13,512
0.8203125,-4666.689,-9235.815,512
0.8222656,-4659.689,-9256.307,512
0.8242188,-4653.666,-9227.92,512
0.8261719,-4649.198,-9221.768,512
0.828125,-4661.823,-9261.88,512
0.8300781,-4641.456,-9260.373,512
0.8320312,-4652.039,-9251.394,512
0.8339844,-4659.488,-9232.744,512
0.8359375,-4663.403,-9167.947,512
0.8378906,-4648.107,-9206.506,512
0.8398438,-4654.058,-9237.175,512
0.8417969,-4660.083,-9250.909,512
0.84375,-4648.654,-9224.223,512
0.8457031,-4669.435,-9214.737,512
0.8476562,-4664.874,-9217.419,512
0.8496094,-4640.309,-9230.366,512
0.8515625,-4648.734,-9224.277,512
0.8535156,-4662.605,-9216.104,512
0.8554688,-4665.416,-9188.048,512
0.8574219,-4674.924,-9187.003,512
0.859375,-4658.729,-9199.927,512
0.8613281,-4664.22,-9220.287,512
0.8632812,-4679.1,-9239.103,512
0.8652344,-4667.57,-9251.548,512
0.8671875,-4653.103,-9250.144,512
0.8691406,-4654.146,-9232.773,512
0.8710938,-4670.183,-9225.607,512
0.8730469,-4666.183,-9246.088,512
0.875,-4656.226,-9238.043,512
0.8769531,-4651.553,-9236.937,512
0.8789062,-4686.563,-9240.982,512
0.8808594,-4710.361,-9205.92,512
0.8828125,-4677.623,-9211.907,512
0.8847656,-4658.298,-9219.609,512
0.8867188,-4660.69,-9216.994,512
0.8886719,-4677.67,-9229.49,512
0.890625,-4657.201,-9243.2,512
0.8925781,-4667.921,-9256.781,512
0.8945312,-4680.743,-9235.347,512
0.8964844,-4671.455,-9226.557,512
0.8984375,-4659.707,-9224.147,512
0.9003906,-4671.994,-9229.411,512
0.9023438,-4664.194,-9261.639,512
0.9042969,-4657.069,-9271.117,512
0.90625,-4648.147,-9262.073,512
0.9082031,-4665.363,-9243.599,512
0.9101562,-4652.432,-9187.255,512
0.9121094,-4666.325,-9199.663,512
0.9140625,-4686.747,-9196.831,512
0.9160156,-4662.287,-9202.704,512
0.9179688,-4656.016,-9217.674,512
0.9199219,-4672.283,-9245.239,512
0.921875,-4679.541,-9266.394,512
0.9238281,-4663.459,-9231.744,512
0.9257812,-4662.245,-9246.093,512
0.9277344,-4652.636,-9242.024,512
0.9296875,-4658.083,-9227.378,512
0.9316406,-4668.103,-9201.961,512
0.9335938,-4664.951,-9196.616,512
0.9355469,-4648.087,-9193.646,512
0.9375,-4635.817,-9218.12,512
0.9394531,-4636.417,-9204.734,512
0.9414062,-4643.266,-9212.719,512
0.9433594,-4652.202,-9204.894,512
0.9453125,-4635.409,-9193.71,512
0.9472656,-4643.224,-9211.197,512
0.9492188,-4657.84,-9209.562,512
0.9511719,-4658.311,-9216.905,512
0.953125,-4639.576,-9200.375,512
0.9550781,-4640.395,-9221.642,512
0.9570312,-4646.833,-9211.069,512
0.9589844,-4647.635,-9224.537,512
0.9609375,-4631.146,-9239.099,512
0.9628906,-4631.114,-9225.222,512
0.9648438,-4639.398,-9251.214,512
0.9667969,-4648.523,-9270.604,512
0.96875,-4633.669,-9222.001,512
0.9707031,-4638.954,-9241.411,512
0.9726562,-4637.286,-9254.099,512
0.9746094,-4634.574,-9227.812,512
0.9765625,-4634.482,-9254.611,512
0.9785156,-4625.715,-9233.774,512
0.9804688,-4636.778,-9246.907,512
0.9824219,-4620.994,-9243.91,512
0.984375,-4619.479,-9204.458,512
0.9863281,-4639.27,-9214.604,512
0.9882812,-4633.253,-9224.252,512
0.9902344,-4620.11,-9212.804,512
0.9921875,-4615.647,-9226.52,512
0.9941406,-4616.786,-9253.362,512
0.9960938,-4607.929,-9237.229,512
0.9980469,-4628.118,-9242.2,512
1,-4605.575,-9256.693,512
1.001953,-4619.594,-9245.656,512
1.003906,-4633.767,-9200.227,512
1.005859,-4618.253,-9186.63,512
1.007812,-4637.594,-9182.814,512
1.009766,-4632.024,-9202.894,512
1.011719,-4650.542,-9216.791,512
1.013672,-4633.135,-9201.914,512
1.015625,-4630.058,-9199.231,512
1.017578,-4634.065,-9193.182,512
1.019531,-4632.556,-9210.863,512
1.021484,-4639.832,-9227.94,512
1.023438,-4656.657,-9235.837,512
1.025391,-4638.498,-9217.46,512
1.027344,-4641.624,-9200.547,512
1.029297,-4658.937,-9221.778,512
1.03125,-4662.99,-9208.872,512
1.033203,-4654.353,-9219.601,512
1.035156,-4642.066,-9215.151,512
1.037109,-4632.233,-9216.425,512
1.039062,-4638.999,-9216.778,512
1.041016,-4653.382,-9205.521,512
1.042969,-4647.744,-9233.848,512
1.044922,-4645.76,-9232.994,512
1.046875,-4644.047,-9218.383,512
1.048828,-4644.096,-9242.281,512
1.050781,-4654.327,-9217.993,512
1.052734,-4649.822,-9230.214,512
1.054688,-4647.768,-9223.237,512
1.056641,-4648.053,-9195.275,512
1.058594,-4650.383,-9166.191,512
1.060547,-4654.821,-9170.151,512
1.0625,-4666.509,-9185.791,512
1.064453,-4658.695,-9207.938,512
1.066406,-4644.189,-9199.051,512
1.068359,-4659.125,-9195.029,512
1.070312,-4655.023,-9193.061,512
1.072266,-4639.609,-9193.52,512
1.074219,-4641.563,-9195.965,512
1.076172,-4656.325,-9206.042,512
1.078125,-4647.178,-9230.841,512
1.080078,-4653.288,-9244.68,512
1.082031,-4627.94,-9238.339,512
1.083984,-4633.442,-9240.972,512
1.085938,-4628.22,-9227.865,512
1.087891,-4623.833,-9215.466,512
1.089844,-4643.235,-9206.439,512
1.091797,-4627.195,-9188.593,512
1.09375,-4626.574,-9167.062,512
1.095703,-4615.467,-9167.532,512
1.097656,-4612.758,-9184.606,512
1.099609,-4594.543,-9185.466,512
1.101562,-4589.42,-9192.263,512
1.103516,-4558.258,-9209.638,512
1.105469,-4534.093,-9203.397,512
1.107422,-4513.15,-9209.038,512
1.109375,-4509.498,-9247.132,512
1.111328,-4522.325,-9290.886,512
1.113281,-4501.163,-9297.496,512
1.115234,-4501.396,-9316.295,512
1.117188,-4511.476,-9301.121,512
1.119141,-4534.295,-9302.175,512
1.121094,-4543.3,-9292.604,512
1.123047,-4590.183,-9248.443,512
1.125,-4610.002,-9242.415,512
1.126953,-4608.72,-9246.892,512
1.128906,-4622.5,-9283.73,512
1.130859,-4628.945,-9275.659,512
1.132812,-4653.83,-9249.6,512
1.134766,-4642.983,-9259.851,512
1.136719,-4654.353,-9237.13,512
1.138672,-4690.474,-9242.89,512
1.140625,-4718.682,-9226.681,512
1.142578,-4760.689,-9204.621,512
1.144531,-4749.981,-9202.886,512
1.146484,-4721.733,-9187.634,512
1.148438,-4712.794,-9188.914,512
1.150391,-4713.709,-9198.474,512
1.152344,-4708.675,-9193.894,512
1.154297,-4690.463,-9196.301,512
1.15625,-4690.041,-9228.001,512
1.158203,-4658.979,-9233.188,512
1.160156,-4638.229,-9266.465,512
1.162109,-4627.565,-9269.575,512
1.164062,-4638.927,-9229.05,512
1.166016,-4642.867,-9195.86,512
1.167969,-4656.808,-9173.94,512
1.169922,-4626.301,-9173.529,512
1.171875,-4637.485,-9199.646,512
1.173828,-4639.149,-9195.919,512
1.175781,-4623.829,-9215.836,512
1.177734,-4626.544,-9220.351,512
1.179688,-4618.959,-9216.669,512
1.181641,-4624.375,-9223.563,512
1.183594,-4619.915,-9212.222,512
1.185547,-4621.732,-9214.438,512
1.1875,-4617.319,-9224.945,512
1.189453,-4611.484,-9261.607,512
1.191406,-4610.738,-9250.783,512
1.193359,-4613.142,-9263.298,512
1.195312,-4610.83,-9224.945,512
1.197266,-4634.831,-9195.758,512
1.199219,-4641.015,-9238.113,512
1.201172,-4636.053,-9175.654,512
1.203125,-4634.185,-9202.35,512
1.205078,-4620.622,-9222.185,512
1.207031,-4630.277,-9228.735,512
1.208984,-4637.435,-9217.545,512
1.210938,-4633.371,-9224.321,512
1.212891,-4634.554,-9249.731,512
1.214844,-4617.032,-9247.641,512
1.216797,-4608.863,-9240.482,512
1.21875,-4608.256,-9222.571,512
1.220703,-4616.284,-9228.147,512
1.222656,-4612.576,-9245.339,512
1.224609,-4635.273,-9258.409,512
1.226562,-4647.429,-9220.126,512
1.228516,-4628.33,-9186.127,512
1.230469,-4626.017,-9212.328,512
1.232422,-4630.5,-9241.161,512
1.234375,-4629.294,-9232.944,512
1.236328,-4633.449,-9250.071,512
1.238281,-4610.493,-9223.025,512
1.240234,-4606.354,-9218.748,512
1.242188,-4609.44,-9225.304,512
1.244141,-4625.433,-9227.834,512
1.246094,-4622.408,-9245.596,512
1.248047,-4623.216,-9237.144,512
1.25,-4622.015,-9234.039,512
1.251953,-4600.718,-9245.38,512
1.253906,-4612.513,-9237.004,512
1.255859,-4615.99,-9221.42,512
1.257812,-4610.254,-9242.057,512
1.259766,-4614.862,-9244.531,512
1.261719,-4613.612,-9261.239,512
1.263672,-4613.771,-9279.479,512
1.265625,-4620.645,-9267.829,512
1.267578,-4613.412,-9235.353,512
1.269531,-4608.378,-9210.755,512
1.271484,-4626.686,-9229.625,512
1.273438,-4591.889,-9234.828,512
1.275391,-4598.18,-9237.702,512
1.277344,-4607.898,-9241.987,512
1.279297,-4611.111,-9238.914,512
1.28125,-4608.486,-9229.618,512
1.283203,-4589.557,-9250.118,512
1.285156,-4588.889,-9276.413,512
1.287109,-4600.962,-9251.101,512
1.289062,-4574.689,-9231.972,512
1.291016,-4573.241,-9229.99,512
1.292969,-4572.969,-9218.934,512
1.294922,-4579.26,-9244.377,512
1.296875,-4567.337,-9246.806,512
1.298828,-4571.717,-9261.966,512
1.300781,-4567.858,-9288.97,512
1.302734,-4558.22,-9271.491,512
1.304688,-4569.492,-9238.238,512
1.306641,-4570.737,-9223.707,512
1.308594,-4563.182,-9239.481,512
1.310547,-4565.903,-9261.489,512
1.3125,-4563.585,-9269.532,512
1.314453,-4556.233,-9267.835,512
1.316406,-4539.309,-9277.657,512
1.318359,-4544.705,-9328.552,512
1.320312,-4550.513,-9285.915,512
1.322266,-4550.377,-9247.471,512
1.324219,-4535.047,-9268.17,512
1.326172,-4532.425,-9250.062,512
1.328125,-4534.807,-9241.528,512
1.330078,-4540.322,-9260.517,512
1.332031,-4538.881,-9289.314,512
1.333984,-4526.314,-9254.513,512
1.335938,-4514.521,-9259.181,512
1.337891,-4526.639,-9254.237,512
1.339844,-4537.153,-9255.478,512
1.341797,-4524.566,-9271.791,512
1.34375,-4527.329,-9274.258,512
1.345703,-4508.892,-9265.223,512
1.347656,-4506.778,-9277.068,512
1.349609,-4524.077,-9281.679,512
1.351562,-4515.025,-9258.292,512
1.353516,-4495.828,-9252.489,512
1.355469,-4516.03,-9255.413,512
1.357422,-4523.216,-9289.265,512
1.359375,-4509.68,-9304.318,512
1.361328,-4507.955,-9314.826,512
1.363281,-4521.938,-9287.643,512
1.365234,-4530.229,-9228.81,512
1.367188,-4544.151,-9251.722,512
1.369141,-4547.098,-9292.647,512
1.371094,-4543.791,-9251.718,512
1.373047,-4553.53,-9250.971,512
1.375,-4567.124,-9267.195,512
1.376953,-4561.687,-9239.562,512
1.378906,-4561.175,-9258.903,512
1.380859,-4585.647,-9276.301,512
1.382812,-4586.102,-9272.084,512
1.384766,-4575.068,-9288.646,512
1.386719,-4598.135,-9239.683,512
1.388672,-4602.054,-9209.342,512
1.390625,-4613.627,-9223.018,512
1.392578,-4634.239,-9234.806,512
1.394531,-4624.019,-9250.752,512
1.396484,-4623.347,-9236.343,512
1.398438,-4629.79,-9231.419,512
1.400391,-4629.665,-9246.67,512
1.402344,-4613.681,-9242.129,512
1.404297,-4634.087,-9256.151,512
1.40625,-4634.636,-9265.978,512
1.408203,-4631.811,-9245.355,512
1.410156,-4633.762,-9225.358,512
1.412109,-4636.652,-9233.962,512
1.414062,-4642.236,-9242.536,512
1.416016,-4647.786,-9245.364,512
1.417969,-4645.232,-9246.146,512
1.419922,-4646.545,-9245.182,512
1.421875,-4639.358,-9246.023,512
1.423828,-4640.151,-9240.622,512
1.425781,-4651.829,-9230.586,512
1.427734,-4650.693,-9216.356,512
1.429688,-4648.258,-9244.158,512
1.431641,-4634.644,-9263.237,512
1.433594,-4623.746,-9222.672,512
1.435547,-4634.406,-9246.317,512
1.4375,-4662.662,-9220.715,512
1.439453,-4658.61,-9214.522,512
1.441406,-4646.307,-9241.35,512
1.443359,-4646.281,-9235.312,512
1.445312,-4660.427,-9239.948,512
1.447266,-4646.434,-9219.584,512
1.449219,-4671.623,-9224.935,512
1.451172,-4641.448,-9242.009,512
1.453125,-4639.26,-9243.159,512
1.455078,-4643.866,-9238.227,512
1.457031,-4632.631,-9223.068,512
1.458984,-4629.569,-9267.043,512
1.460938,-4622.899,-9257.766,512
1.462891,-4615.995,-9255.359,512
1.464844,-4630.101,-9281.062,512
1.466797,-4639.181,-9224.088,512
1.46875,-4651.333,-9197.201,512
1.470703,-4646.678,-9184.416,512
1.472656,-4628.332,-9211.185,512
1.474609,-4628.264,-9228.03,512
1.476562,-4627.667,-9237.398,512
1.478516,-4630.563,-9232.198,512
1.480469,-4635.139,-9235.919,512
1.482422,-4644.999,-9213.69,512
1.484375,-4641.153,-9224.469,512
1.486328,-4642.033,-9272.377,512
1.488281,-4619.979,-9302.644,512
1.490234,-4630.13,-9230.984,512
1.492188,-4640.272,-9191.112,512
1.494141,-4637.381,-9222.132,512
1.496094,-4643.432,-9219.502,512
1.498047,-4643.622,-9227.763,512
1.5,-4639.151,-9226.998,512
1.501953,-4642.64,-9217.64,512
1.503906,-4645.828,-9251.768,512
1.505859,-4643.781,-9238.175,512
1.507812,-4630.622,-9223.233,512
1.509766,-4635.397,-9231.166,512
1.511719,-4646.21,-9264.492,512
1.513672,-4637.555,-9229.803,512
1.515625,-4642.773,-9221.042,512
1.517578,-4647.53,-9219.282,512
1.519531,-4646.929,-9230.187,512
1.521484,-4640.586,-9255.482,512
1.523438,-4624.662,-9248.85,512
1.525391,-4623.81,-9252.905,512
1.527344,-4625.173,-9237.603,512
1.529297,-4646.351,-9248.952,512
1.53125,-4652.178,-9252.778,512
1.533203,-4635.436,-9220.738,512
1.535156,-4631.243,-9200.933,512
1.537109,-4634.156,-9205.878,512
1.539062,-4651.568,-9223.632,512
1.541016,-4654.628,-9238.476,512
1.542969,-4653.291,-9238.164,512
1.544922,-4648.295,-9208.282,512
1.546875,-4635.504,-9246.973,512
1.548828,-4644.386,-9260.736,512
1.550781,-4643.563,-9239.69,512
1.552734,-4632.059,-9222.953,512
1.554688,-4649.922,-9245.979,512
1.556641,-4650.782,-9241.868,512
1.558594,-4646.08,-9213.136,512
1.560547,-4645.737,-9239.293,512
1.5625,-4651.601,-9215.967,512
1.564453,-4654.626,-9250.031,512
1.566406,-4654.924,-9226.002,512
1.568359,-4642.768,-9234.225,512
1.570312,-4627.918,-9233.302,512
1.572266,-4635.486,-9229.334,512
1.574219,-4627.972,-9243.043,512
1.576172,-4645.808,-9214.482,512
1.578125,-4662.246,-9240.675,512
1.580078,-4650.945,-9251.56,512
1.582031,-4648.715,-9230.106,512
1.583984,-4655.505,-9234.9,512
1.585938,-4644.259,-9227.946,512
1.587891,-4636.335,-9235.448,512
1.589844,-4649.916,-9189.105,512
1.591797,-4643.459,-9207.6,512
1.59375,-4646.714,-9223.424,512
1.595703,-4661.621,-9263.079,512
1.597656,-4655.192,-9284.637,512
1.599609,-4646.459,-9292.478,512
1.601562,-4656.059,-9283.382,512
1.603516,-4636.402,-9242.436,512
1.605469,-4651.568,-9222.036,512
1.607422,-4671.027,-9222.164,512
1.609375,-4670.459,-9226.438,512
1.611328,-4656.546,-9220.022,512
1.613281,-4664.032,-9212.328,512
1.615234,-4661.333,-9243.954,512
1.617188,-4655.183,-9225.327,512
1.619141,-4650.042,-9214.985,512
1.621094,-4634.672,-9235.81,512
1.623047,-4646.378,-9242.155,512
1.625,-4649.499,-9251.811,512
1.626953,-4639.575,-9276.265,512
1.628906,-4649.609,-9287.174,512
1.630859,-4670.277,-9251.288,512
1.632812,-4661.598,-9192.428,512
1.634766,-4662.208,-9186.008,512
1.636719,-4650.187,-9180.817,512
1.638672,-4637.375,-9211.708,512
1.640625,-4645.908,-9227.793,512
1.642578,-4655.084,-9204.848,512
1.644531,-4653.565,-9236.377,512
1.646484,-4651.543,-9232.694,512
1.648438,-4658.158,-9225.694,512
1.650391,-4641.241,-9224.781,512
1.652344,-4630.315,-9230.719,512
1.654297,-4654.4,-9247.497,512
1.65625,-4652.421,-9233.072,512
1.658203,-4671.818,-9245.296,512
1.660156,-4675.128,-9245.41,512
1.662109,-4662.755,-9255.612,512
1.664062,-4664.155,-9244.776,512
1.666016,-4653.586,-9238.328,512
1.667969,-4661.617,-9258.236,512
1.669922,-4636.929,-9256.299,512
1.671875,-4648.296,-9244.158,512
1.673828,-4653.887,-9236.884,512
1.675781,-4653.234,-9257.92,512
1.677734,-4652.062,-9255.133,512
1.679688,-4654.891,-9235.869,512
1.681641,-4658.018,-9213.459,512
1.683594,-4663.302,-9186.614,512
1.685547,-4661.881,-9219.562,512
1.6875,-4663.117,-9227.576,512
1.689453,-4663.272,-9256.199,512
1.691406,-4662.877,-9232.618,512
1.693359,-4663.241,-9226.711,512
1.695312,-4665.141,-9244.154,512
1.697266,-4665.272,-9258.686,512
1.699219,-4669.733,-9257.699,512
1.701172,-4660.823,-9231.427,512
1.703125,-4654.801,-9224.349,512
1.705078,-4671.85,-9252.38,512
1.707031,-4659.523,-9227.659,512
1.708984,-4651.892,-9229.361,512
1.710938,-4659.658,-9236.794,512
1.712891,-4655.582,-9251.128,512
1.714844,-4671.385,-9231.104,512
1.716797,-4666.355,-9233.404,512
1.71875,-4682.809,-9237.187,512
1.720703,-4670.44,-9236.587,512
1.722656,-4654.033,-9223.899,512
1.724609,-4663.405,-9244.993,512
1.726562,-4656.972,-9239.027,512
1.728516,-4648.817,-9244.198,512
1.730469,-4655.194,-9288.031,512
1.732422,-4651.517,-9244.249,512
1.734375,-4650.998,-9232.986,512
1.736328,-4635.447,-9246.852,512
1.738281,-4640.708,-9250.688,512
1.740234,-4647.094,-9270.944,512
1.742188,-4643.661,-9235.589,512
1.744141,-4643.809,-9209.21,512
1.746094,-4653.716,-9226.332,512
1.748047,-4659.165,-9231.97,512
1.75,-4641.476,-9221.451,512
1.751953,-4641.573,-9235.267,512
1.753906,-4650.724,-9235.899,512
1.755859,-4648.401,-9248.143,512
1.757812,-4659.141,-9267.556,512
1.759766,-4641.235,-9300.029,512
1.761719,-4629.149,-9316.484,512
1.763672,-4649.469,-9288.974,512
1.765625,-4636.257,-9286.143,512
1.767578,-4619.75,-9271.936,512
1.769531,-4640.421,-9252.77,512
1.771484,-4636.559,-9266.424,512
1.773438,-4628.565,-9271.16,512
1.775391,-4636.469,-9228.304,512
1.777344,-4651.204,-9251.745,512
1.779297,-4650.205,-9254.82,512
1.78125,-4649.622,-9246.616,512
1.783203,-4655.66,-9252.945,512
1.785156,-4657.106,-9258.972,512
1.787109,-4672.058,-9274.22,512
1.789062,-4649.276,-9258.976,512
1.791016,-4637.192,-9254.246,512
1.792969,-4661.768,-9273.983,512
1.794922,-4657.028,-9287.503,512
1.796875,-4640.355,-9276.723,512
1.798828,-4645.387,-9260.569,512
1.800781,-4647.974,-9271.662,512
1.802734,-4650.814,-9297.572,512
1.804688,-4641,-9278.932,512
1.806641,-4662.073,-9243.623,512
1.808594,-4665.062,-9241.862,512
1.810547,-4670.792,-9229.867,512
1.8125,-4667.307,-9243.98,512
1.814453,-4656.175,-9236.358,512
1.816406,-4658.189,-9222.608,512
1.818359,-4666.585,-9240.457,512
1.820312,-4667.36,-9245.528,512
1.822266,-4654.022,-9248.71,512
1.824219,-4657.998,-9243.596,512
1.826172,-4665.047,-9254.046,512
1.828125,-4668.581,-9259.4,512
1.830078,-4670.373,-9241.775,512
1.832031,-4678.977,-9257.681,512
1.833984,-4674.298,-9244.802,512
1.835938,-4656.962,-9237.596,512
1.837891,-4673.699,-9239.384,512
1.839844,-4667.973,-9261.788,512
1.841797,-4667.59,-9268.308,512
1.84375,-4662.169,-9241.88,512
1.845703,-4659.776,-9237.514,512
1.847656,-4652.363,-9257.153,512
1.849609,-4653.074,-9238.289,512
1.851562,-4671.121,-9238.999,512
1.853516,-4667.514,-9264.441,512
1.855469,-4670.491,-9281.789,512
1.857422,-4664.039,-9252.975,512
1.859375,-4688.054,-9228.382,512
1.861328,-4683.987,-9235.401,512
1.863281,-4666.524,-9239.278,512
1.865234,-4667.769,-9260.238,512
1.867188,-4664.207,-9237.181,512
1.869141,-4659.088,-9219.117,512
1.871094,-4666.663,-9234.099,512
1.873047,-4682.432,-9245.431,512
1.875,-4672.01,-9278.435,512
1.876953,-4640.542,-9253.019,512
1.878906,-4638.843,-9242.428,512
1.880859,-4643.023,-9243.102,512
1.882812,-4650.661,-9217.211,512
1.884766,-4638.862,-9178.384,512
1.886719,-4612.654,-9194.341,512
1.888672,-4578.732,-9212.823,512
1.890625,-4560.765,-9237.302,512
1.892578,-4543.463,-9264.86,512
1.894531,-4545.098,-9281.218,512
1.896484,-4565.77,-9315.854,512
1.898438,-4547.546,-9329.212,512
1.900391,-4550.895,-9351.995,512
1.902344,-4552.061,-9322.935,512
1.904297,-4560.704,-9291.749,512
1.90625,-4580.493,-9285.231,512
1.908203,-4624.388,-9262.448,512
1.910156,-4631.875,-9308.851,512
1.912109,-4651.106,-9314.229,512
1.914062,-4680.047,-9306.854,512
1.916016,-4672.805,-9343.336,512
1.917969,-4672.255,-9302.385,512
1.919922,-4692.42,-9293.636,512
1.921875,-4691.219,-9301.447,512
1.923828,-4712.333,-9321.559,512
1.925781,-4739.318,-9321.396,512
1.927734,-4778.274,-9279.127,512
1.929688,-4804.064,-9239.591,512
1.931641,-4789.583,-9231.678,512
1.933594,-4761.985,-9203.137,512
1.935547,-4751.358,-9196.632,512
1.9375,-4749.766,-9213.369,512
1.939453,-4722.377,-9213.12,512
1.941406,-4699.73,-9227.438,512
1.943359,-4689.373,-9220.438,512
1.945312,-4686.56,-9213.692,512
1.947266,-4666.242,-9233.603,512
1.949219,-4671.743,-9223.679,512
1.951172,-4669.145,-9234.356,512
1.953125,-4662.66,-9238.872,512
1.955078,-4656.612,-9241.995,512
1.957031,-4656.814,-9247.585,512
1.958984,-4656.584,-9234.583,512
1.960938,-4650.709,-9232.146,512
1.962891,-4658.316,-9253.86,512
1.964844,-4650.679,-9253.854,512
1.966797,-4650.101,-9271.141,512
1.96875,-4639.787,-9230.564,512
1.970703,-4641.361,-9218.234,512
1.972656,-4659.573,-9222.889,512
1.974609,-4668.348,-9240.197,512
1.976562,-4653.741,-9218.004,512
1.978516,-4644.807,-9233.007,512
1.980469,-4662.854,-9235.128,512
1.982422,-4661.687,-9238.056,512
1.984375,-4654.924,-9253.526,512
1.986328,-4649.948,-9266.009,512
1.988281,-4655.196,-9246.817,512
1.990234,-4642.919,-9273.554,512
1.992188,-4648.566,-9258.461,512
1.994141,-4649.174,-9292.929,512
1.996094,-4642.928,-9274.13,512
1.998047,-4624.623,-9253.99,512
2,-4640.074,-9225.665,512
2.001953,-4631.53,-9199.699,512
2.003906,-4641.579,-9229.65,512
2.005859,-4662.862,-9191.897,512
2.007812,-4653.783,-9218.367,512
2.009766,-4635.46,-9249.033,512
2.011719,-4641.885,-9252.286,512
2.013672,-4639.308,-9251.279,512
2.015625,-4653.454,-9219.896,512
2.017578,-4645.891,-9234.054,512
2.019531,-4646.06,-9257.161,512
2.021484,-4639.143,-9255.477,512
2.023438,-4635.133,-9209.696,512
2.025391,-4631.684,-9239.816,512
2.027344,-4638.034,-9218.535,512
2.029297,-4636.38,-9232.905,512
2.03125,-4630.671,-9237.988,512
2.033203,-4633.434,-9219.593,512
2.035156,-4644.176,-9237.044,512
2.037109,-4637.282,-9231.872,512
2.039062,-4631.172,-9247.528,512
2.041016,-4623.313,-9273.796,512
2.042969,-4620.124,-9270.539,512
2.044922,-4625.768,-9250.622,512
2.046875,-4645.408,-9238.36,512
2.048828,-4646.187,-9232.203,512
2.050781,-4630.303,-9228.05,512
2.052734,-4623.669,-9263.062,512
2.054688,-4617.579,-9244.532,512
2.056641,-4624.139,-9228.297,512
2.058594,-4613.037,-9250.302,512
2.060547,-4612.204,-9273.353,512
2.0625,-4611.159,-9270.64,512
2.064453,-4599.297,-9251.797,512
2.066406,-4604.128,-9236,512
2.068359,-4615.775,-9227.604,512
2.070312,-4615.461,-9220.595,512
2.072266,-4610.851,-9231.687,512
2.074219,-4624.209,-9262.783,512
2.076172,-4608.967,-9254.124,512
2.078125,-4603.326,-9247.977,512
2.080078,-4610.346,-9253.822,512
2.082031,-4609.359,-9262.429,512
2.083984,-4605.328,-9289.43,512
2.085938,-4596.954,-9304.25,512
2.087891,-4581.021,-9305.195,512
2.089844,-4575.046,-9308.641,512
2.091797,-4590.236,-9215.539,512
2.09375,-4602.361,-9269.013,512
2.095703,-4585.683,-9233.522,512
2.097656,-4586.593,-9241.824,512
2.099609,-4578.222,-9248.764,512
2.101562,-4565.283,-9249.951,512
2.103516,-4583.871,-9257.488,512
2.105469,-4566.367,-9257.343,512
2.107422,-4536.378,-9279.95,512
2.109375,-4559.872,-9300.898,512
2.111328,-4555.977,-9301.963,512
2.113281,-4537.225,-9281.056,512
2.115234,-4532.5,-9252.086,512
2.117188,-4548.214,-9248.153,512
2.119141,-4554.808,-9228.394,512
2.121094,-4548.696,-9249.473,512
2.123047,-4549.353,-9253.866,512
2.125,-4557.131,-9277.461,512
2.126953,-4552.179,-9278.886,512
2.128906,-4550.169,-9275.847,512
2.130859,-4547.714,-9302.105,512
2.132812,-4554.408,-9296.707,512
2.134766,-4551.864,-9307.928,512
2.136719,-4542.947,-9317.635,512
2.138672,-4551.181,-9278.251,512
2.140625,-4551.775,-9255.639,512
2.142578,-4549.358,-9257.938,512
2.144531,-4552.648,-9282.951,512
2.146484,-4556.105,-9258.351,512
2.148438,-4553.842,-9256.511,512
2.150391,-4571.55,-9280.607,512
2.152344,-4566.601,-9292.327,512
2.154297,-4570.921,-9299,512
2.15625,-4595.833,-9316.801,512
2.158203,-4591.162,-9277.061,512
2.160156,-4587.673,-9250.062,512
2.162109,-4608.095,-9243.779,512
2.164062,-4613.586,-9261.006,512
2.166016,-4616.295,-9247.255,512
2.167969,-4608.173,-9262.69,512
2.169922,-4616.535,-9262.01,512
2.171875,-4618.375,-9257.781,512
2.173828,-4635.421,-9263.509,512
2.175781,-4646.058,-9271.203,512
2.177734,-4647.769,-9252.598,512
2.179688,-4655.107,-9242.727,512
2.181641,-4655.544,-9246.786,512
2.183594,-4666.018,-9250.032,512
2.185547,-4670.566,-9260.579,512
2.1875,-4684.158,-9247.328,512
2.189453,-4685.25,-9242.985,512
2.191406,-4673.415,-9249.528,512
2.193359,-4670.472,-9256.22,512
2.195312,-4670.403,-9275.939,512
2.197266,-4677.143,-9264.13,512
2.199219,-4680.995,-9246.813,512
2.201172,-4695.496,-9262.516,512
2.203125,-4689.589,-9268.313,512
2.205078,-4694.307,-9282.79,512
2.207031,-4684.512,-9259.383,512
2.208984,-4693.236,-9252.774,512
2.210938,-4695.011,-9258.757,512
2.212891,-4679.862,-9279.613,512
2.214844,-4673.467,-9307.833,512
2.216797,-4678.075,-9309.652,512
2.21875,-4693.557,-9275.045,512
2.220703,-4693.786,-9227.674,512
2.222656,-4696.827,-9223.402,512
2.224609,-4706.126,-9247.563,512
2.226562,-4701.45,-9245.512,512
2.228516,-4690.807,-9253.516,512
2.230469,-4691.968,-9260.111,512
2.232422,-4691.65,-9266.96,512
2.234375,-4682.656,-9258.815,512
2.236328,-4694.298,-9272.736,512
2.238281,-4693.883,-9258.812,512
2.240234,-4687.86,-9250.544,512
2.242188,-4686.037,-9254.531,512
2.244141,-4687.199,-9270.036,512
2.246094,-4687.809,-9272.043,512
2.248047,-4679.92,-9257.484,512
2.25,-4676.381,-9253.632,512
2.251953,-4702.873,-9233.948,512
2.253906,-4702.463,-9239.573,512
2.255859,-4689.591,-9255.609,512
2.257812,-4682.739,-9261.401,512
2.259766,-4686.552,-9276.479,512
2.261719,-4696.903,-9256.392,512
2.263672,-4690.184,-9211.368,512
2.265625,-4698.889,-9244.375,512
2.267578,-4692.737,-9240.755,512
2.269531,-4698.354,-9250.212,512
2.271484,-4686.304,-9242.534,512
2.273438,-4682.315,-9285.549,512
2.275391,-4680.534,-9305.154,512
2.277344,-4691.235,-9267.675,512
2.279297,-4698.721,-9244.535,512
2.28125,-4702.8,-9212.726,512
2.283203,-4701.963,-9254.842,512
2.285156,-4704.165,-9268.992,512
2.287109,-4705.828,-9283.405,512
2.289062,-4701.198,-9258.856,512
2.291016,-4705.056,-9222.841,512
2.292969,-4708.208,-9242.463,512
2.294922,-4697.909,-9245.528,512
2.296875,-4698.934,-9263.272,512
2.298828,-4689.217,-9292.764,512
2.300781,-4690.489,-9276.74,512
2.302734,-4708.669,-9277.964,512
2.304688,-4688.24,-9247.348,512
2.306641,-4687.306,-9241.588,512
2.308594,-4690.327,-9267.537,512
2.310547,-4689.542,-9246.958,512
2.3125,-4701.973,-9238.131,512
2.314453,-4704.596,-9266.385,512
2.316406,-4698.13,-9257.186,512
2.318359,-4694.392,-9247.501,512
2.320312,-4716.195,-9263.045,512
2.322266,-4716.25,-9261.82,512
2.324219,-4712.69,-9277.26,512
2.326172,-4702.227,-9291.695,512
2.328125,-4687.675,-9292.959,512
2.330078,-4703.026,-9306.279,512
2.332031,-4696.297,-9272.301,512
2.333984,-4685.146,-9233.745,512
2.335938,-4706.161,-9251.973,512
2.337891,-4704.32,-9268.498,512
2.339844,-4703.373,-9278.244,512
2.341797,-4698.038,-9283.897,512
2.34375,-4694.476,-9284.784,512
2.345703,-4710.754,-9262.55,512
2.347656,-4704.288,-9252.458,512
2.349609,-4695.556,-9262.412,512
2.351562,-4708.684,-9256.658,512
2.353516,-4715.733,-9250.541,512
2.355469,-4715.465,-9264.094,512
2.357422,-4709.085,-9289.238,512
2.359375,-4713.724,-9286.098,512
2.361328,-4715.119,-9263.621,512
2.363281,-4701.956,-9267.634,512
2.365234,-4706.72,-9245.966,512
2.367188,-4712.801,-9250.031,512
2.369141,-4692.468,-9250.115,512
2.371094,-4701.62,-9275.723,512
2.373047,-4705.956,-9266.067,512
2.375,-4709.563,-9249.918,512
2.376953,-4707.768,-9268.995,512
2.378906,-4698.651,-9274.374,512
2.380859,-4694.26,-9289.891,512
2.382812,-4691.539,-9288.383,512
2.384766,-4688.685,-9253.321,512
2.386719,-4688.548,-9227.613,512
2.388672,-4704.858,-9235.542,512
2.390625,-4702.234,-9254.674,512
2.392578,-4703.281,-9265.546,512
2.394531,-4703.616,-9283.77,512
2.396484,-4708.08,-9307.076,512
2.398438,-4702.095,-9314.951,512
2.400391,-4693.319,-9263.437,512
2.402344,-4704.167,-9264.369,512
2.404297,-4704.489,-9260.478,512
2.40625,-4712.942,-9236.612,512
2.408203,-4716.267,-9260.147,512
2.410156,-4704.207,-9257.333,512
2.412109,-4699.031,-9252.628,512
2.414062,-4701.57,-9262.856,512
2.416016,-4706.257,-9305.746,512
2.417969,-4701.753,-9272.22,512
2.419922,-4725.212,-9252.267,512
2.421875,-4721.442,-9231.304,512
2.423828,-4697.999,-9251.533,512
2.425781,-4711.707,-9273.421,512
2.427734,-4702.397,-9252.929,512
2.429688,-4703.188,-9263.651,512
2.431641,-4711.772,-9289.019,512
2.433594,-4711.221,-9271.275,512
2.435547,-4715.062,-9273.84,512
2.4375,-4711.995,-9306.334,512
2.439453,-4710.506,-9276.022,512
2.441406,-4733.242,-9266.961,512
2.443359,-4717.878,-9281.055,512
2.445312,-4711.161,-9265.831,512
2.447266,-4709.721,-9245.68,512
2.449219,-4712.485,-9267.818,512
2.451172,-4717.538,-9268.062,512
2.453125,-4708.044,-9247.37,512
2.455078,-4722.259,-9251.267,512
2.457031,-4712.034,-9257.263,512
2.458984,-4698.93,-9267.596,512
2.460938,-4693.477,-9285.936,512
2.462891,-4693.318,-9292.532,512
2.464844,-4700.478,-9257.582,512
2.466797,-4712.357,-9272.563,512
2.46875,-4708.238,-9280.312,512
2.470703,-4724.138,-9297.308,512
2.472656,-4723.129,-9281.312,512
2.474609,-4717.344,-9270.083,512
2.476562,-4729.138,-9277.556,512
2.478516,-4727.371,-9276.506,512
2.480469,-4727.638,-9257.228,512
2.482422,-4710.795,-9254.619,512
2.484375,-4722.849,-9276.762,512
2.486328,-4722.787,-9284.763,512
2.488281,-4719.312,-9278.047,512
2.490234,-4730.877,-9280.666,512
2.492188,-4724.909,-9304.715,512
2.494141,-4729.042,-9299.923,512
2.496094,-4747.812,-9335.031,512
2.498047,-4726.49,-9326.194,512
2.5,-4737.894,-9261.127,512
2.501953,-4740.916,-9250.252,512
2.503906,-4743.229,-9270.658,512
2.505859,-4748.495,-9291.753,512
2.507812,-4740.131,-9287.382,512
2.509766,-4747.124,-9294.412,512
2.511719,-4744.797,-9306.415,512
2.513672,-4735.416,-9295.729,512
2.515625,-4739.284,-9348.194,512
2.517578,-4737.381,-9317.639,512
2.519531,-4737.893,-9312.271,512
2.521484,-4739.631,-9331.451,512
2.523438,-4735.106,-9325.136,512
2.525391,-4731.611,-9296.214,512
2.527344,-4757.346,-9295.228,512
2.529297,-4747.359,-9304.276,512
2.53125,-4747.331,-9272.787,512
2.533203,-4734.671,-9275.675,512
2.535156,-4730.773,-9275.615,512
2.537109,-4739.307,-9296.719,512
2.539062,-4722.586,-9297.623,512
2.541016,-4723.185,-9282.457,512
2.542969,-4719.147,-9307.9,512
2.544922,-4721.434,-9327.205,512
2.546875,-4720.476,-9323.391,512
2.548828,-4708.428,-9318.999,512
2.550781,-4732.018,-9327.305,512
2.552734,-4723.74,-9327.616,512
2.554688,-4740.514,-9299.319,512
2.556641,-4749.335,-9297.961,512
2.558594,-4741.739,-9320.486,512
2.560547,-4752.789,-9309.242,512
2.5625,-4722.697,-9324.322,512
2.564453,-4713.199,-9333.057,512
2.566406,-4721.628,-9307.564,512
2.568359,-4727.209,-9294.871,512
2.570312,-4724.371,-9304.209,512
2.572266,-4706.401,-9299.011,512
2.574219,-4719.17,-9297.461,512
2.576172,-4721.363,-9313.395,512
2.578125,-4732.34,-9320.099,512
2.580078,-4741.832,-9312.382,512
2.582031,-4728.479,-9305.304,512
2.583984,-4720.793,-9300.576,512
2.585938,-4732.512,-9316.276,512
2.587891,-4728.24,-9313.989,512
2.589844,-4714.641,-9289.556,512
2.591797,-4716.542,-9294.346,512
2.59375,-4730.474,-9318.613,512
2.595703,-4717.6,-9371.027,512
2.597656,-4719.447,-9327.398,512
2.599609,-4735.139,-9319.151,512
2.601562,-4726.677,-9282.401,512
2.603516,-4721.197,-9269.164,512
2.605469,-4727.335,-9281.188,512
2.607422,-4714.701,-9275.042,512
2.609375,-4714.047,-9289.461,512
2.611328,-4726.063,-9288.793,512
2.613281,-4738.813,-9274.493,512
2.615234,-4731.896,-9277.095,512
2.617188,-4737.715,-9298.732,512
2.619141,-4730.356,-9281.888,512
2.621094,-4714.339,-9280.16,512
2.623047,-4720.703,-9323.594,512
2.625,-4738.959,-9294.944,512
2.626953,-4708.602,-9301.787,512
2.628906,-4717.834,-9274.195,512
2.630859,-4722.975,-9294.281,512
2.632812,-4710.677,-9318.024,512
2.634766,-4708.765,-9324.247,512
2.636719,-4707.492,-9329.509,512
2.638672,-4707.061,-9275.978,512
2.640625,-4719.96,-9244.661,512
2.642578,-4734.01,-9254.643,512
2.644531,-4729.594,-9249.261,512
2.646484,-4715.329,-9263.04,512
2.648438,-4711.819,-9269.893,512
2.650391,-4719.413,-9261.552,512
2.652344,-4719.307,-9282.868,512
2.654297,-4711.733,-9268.297,512
2.65625,-4703.681,-9275.749,512
2.658203,-4710.305,-9281.464,512
2.660156,-4737.816,-9303.893,512
2.662109,-4729.044,-9290.37,512
2.664062,-4721.488,-9303.627,512
2.666016,-4724.245,-9293.925,512
2.667969,-4714.797,-9294.646,512
2.669922,-4725.377,-9269.942,512
2.671875,-4710.975,-9287.503,512
2.673828,-4700.503,-9300.741,512
2.675781,-4698.524,-9303.2,512
2.677734,-4697.301,-9314.142,512
2.679688,-4675.786,-9269.033,512
2.681641,-4652.715,-9269.618,512
2.683594,-4654.772,-9258.695,512
2.685547,-4614.455,-9249.345,512
2.6875,-4615.663,-9293.195,512
2.689453,-4609.891,-9293.598,512
2.691406,-4610.893,-9325.45,512
2.693359,-4616.53,-9350.786,512
2.695312,-4607.12,-9357.225,512
2.697266,-4614.589,-9366.432,512
2.699219,-4611.991,-9362.085,512
2.701172,-4637.814,-9344.937,512
2.703125,-4676.406,-9353.621,512
2.705078,-4708.798,-9357.575,512
2.707031,-4734.731,-9374.592,512
2.708984,-4699.234,-9393.07,512
2.710938,-4717.025,-9395.011,512
2.712891,-4733.597,-9383.896,512
2.714844,-4737.685,-9352.179,512
2.716797,-4751.987,-9326.16,512
2.71875,-4768.306,-9353.474,512
2.720703,-4793.042,-9351.371,512
2.722656,-4835.855,-9316.795,512
2.724609,-4834.412,-9281.941,512
2.726562,-4840.123,-9228.465,512
2.728516,-4835.5,-9248.448,512
2.730469,-4802.402,-9261.515,512
2.732422,-4780.758,-9274.355,512
2.734375,-4763.404,-9272.82,512
2.736328,-4744.848,-9279.346,512
2.738281,-4720.714,-9283.937,512
2.740234,-4701.884,-9292.432,512
2.742188,-4698.792,-9290.443,512
2.744141,-4710.946,-9285.258,512
2.746094,-4716.856,-9300.016,512
2.748047,-4705.2,-9301.002,512
2.75,-4713.037,-9280.337,512
2.751953,-4709.276,-9292.614,512
2.753906,-4707.36,-9287.19,512
2.755859,-4714.996,-9279.977,512
2.757812,-4704.914,-9245.833,512
2.759766,-4711.1,-9256.08,512
2.761719,-4714.879,-9266.284,512
2.763672,-4715.543,-9275.616,512
2.765625,-4705.343,-9273.393,512
2.767578,-4719.831,-9261.081,512
2.769531,-4718.009,-9266.833,512
2.771484,-4708.827,-9289.274,512
2.773438,-4695.866,-9280.29,512
2.775391,-4700.86,-9267.37,512
2.777344,-4702.407,-9300.742,512
2.779297,-4700.458,-9304.636,512
2.78125,-4706.171,-9306.651,512
2.783203,-4684.437,-9299.887,512
2.785156,-4676.773,-9283.396,512
2.787109,-4690.879,-9280.657,512
2.789062,-4694.716,-9273.765,512
2.791016,-4685.025,-9267.312,512
2.792969,-4690.01,-9291.312,512
2.794922,-4693.641,-9317.652,512
2.796875,-4699.955,-9339.402,512
2.798828,-4697.872,-9319.136,512
2.800781,-4700.521,-9285.16,512
2.802734,-4698.787,-9269.749,512
2.804688,-4696.61,-9260.237,512
2.806641,-4697.44,-9273.191,512
2.808594,-4679.975,-9280.798,512
2.810547,-4689.184,-9275.293,512
2.8125,-4695.365,-9282.324,512
2.814453,-4696.465,-9291.221,512
2.816406,-4694.291,-9330.912,512
2.818359,-4675.134,-9292.562,512
2.820312,-4692.221,-9245.472,512
2.822266,-4683.874,-9261.077,512
2.824219,-4680.412,-9267.639,512
2.826172,-4692.524,-9280.487,512
2.828125,-4694.792,-9269.829,512
2.830078,-4668.493,-9296.925,512
2.832031,-4672.173,-9303.671,512
2.833984,-4682.973,-9313.467,512
2.835938,-4676.293,-9314.175,512
2.837891,-4683.511,-9304.761,512
2.839844,-4675.73,-9304.08,512
2.841797,-4672.581,-9299.853,512
2.84375,-4679.113,-9292.772,512
2.845703,-4677.293,-9280.848,512
2.847656,-4669.008,-9279.813,512
2.849609,-4660.74,-9292.727,512
2.851562,-4665.962,-9289.022,512
2.853516,-4648.919,-9274.134,512
2.855469,-4644.876,-9288.469,512
2.857422,-4636.823,-9281.73,512
2.859375,-4647.715,-9293.749,512
2.861328,-4648.73,-9306.977,512
2.863281,-4650.566,-9295.368,512
2.865234,-4651.534,-9295.315,512
2.867188,-4637.464,-9297.226,512
2.869141,-4634.423,-9259.757,512
2.871094,-4634.565,-9273.171,512
2.873047,-4649.907,-9284.818,512
2.875,-4656.145,-9272.383,512
2.876953,-4638.261,-9288.724,512
2.878906,-4638.509,-9269.652,512
2.880859,-4648.813,-9278.708,512
2.882812,-4633.334,-9289.758,512
2.884766,-4620.143,-9282.576,512
2.886719,-4616.306,-9276.812,512
2.888672,-4614.908,-9285.114,512
2.890625,-4603.327,-9311.404,512
2.892578,-4603.899,-9310.502,512
2.894531,-4589.155,-9340.966,512
2.896484,-4587.167,-9351.596,512
2.898438,-4592.577,-9291.494,512
2.900391,-4591.245,-9284.954,512
2.902344,-4605.112,-9243.98,512
2.904297,-4611.538,-9271.748,512
2.90625,-4613.451,-9291.047,512
2.908203,-4583.809,-9297.955,512
2.910156,-4579.784,-9309.649,512
2.912109,-4592.383,-9312.677,512
2.914062,-4582.868,-9296.559,512
2.916016,-4587.121,-9321.756,512
2.917969,-4579.061,-9326.47,512
2.919922,-4588.698,-9322.782,512
2.921875,-4594.511,-9335.11,512
2.923828,-4574.914,-9291.607,512
2.925781,-4573.742,-9288.507,512
2.927734,-4582.861,-9297.578,512
2.929688,-4588.224,-9322.93,512
2.931641,-4587.155,-9334.897,512
2.933594,-4590.648,-9308.04,512
2.935547,-4588.217,-9308.502,512
2.9375,-4590.37,-9305.772,512
2.939453,-4596.852,-9308.298,512
2.941406,-4593.525,-9311.301,512
2.943359,-4599.175,-9304.16,512
2.945312,-4615.636,-9334.43,512
2.947266,-4617.989,-9320.431,512
2.949219,-4615.367,-9297.272,512
2.951172,-4615.2,-9307.904,512
2.953125,-4633.685,-9355.05,512
2.955078,-4642.151,-9334.992,512
2.957031,-4638.36,-9288.212,512
2.958984,-4636.468,-9322.419,512
2.960938,-4652.69,-9340.101,512
2.962891,-4658.188,-9338.34,512
2.964844,-4672.965,-9303.46,512
2.966797,-4672.931,-9275.947,512
2.96875,-4682.278,-9268.816,512
2.970703,-4690.263,-9283.196,512
2.972656,-4680.637,-9272.7,512
2.974609,-4679.883,-9272.81,512
2.976562,-4683.983,-9282.268,512
2.978516,-4690.212,-9291.811,512
2.980469,-4692.102,-9279.734,512
2.982422,-4689.904,-9282.346,512
2.984375,-4689.154,-9284.201,512
2.986328,-4696.558,-9302.399,512
2.988281,-4698.209,-9300.938,512
2.990234,-4693.492,-9300.431,512
2.992188,-4691.117,-9302.091,512
2.994141,-4694.39,-9325.594,512
2.996094,-4697.097,-9274.015,512
2.998047,-4695.199,-9263.904,512
3,-4726.801,-9274.851,512
3.001953,-4709.405,-9245.512,512
3.003906,-4703.902,-9253.333,512
3.005859,-4712.948,-9265.962,512
3.007812,-4712.028,-9272.795,512
3.009766,-4700.657,-9261.107,512
3.011719,-4711.281,-9276.869,512
3.013672,-4713.605,-9295.059,512
3.015625,-4705.965,-9293.96,512
3.017578,-4721.283,-9298.097,512
3.019531,-4719.458,-9284.121,512
3.021484,-4716.515,-9270.945,512
3.023438,-4718.649,-9276.719,512
3.025391,-4711.522,-9276.806,512
3.027344,-4722.213,-9280.168,512
3.029297,-4719.82,-9281.349,512
3.03125,-4705.532,-9266.754,512
3.033203,-4721.355,-9282.357,512
3.035156,-4715.297,-9278.601,512
3.037109,-4725.763,-9270.504,512
3.039062,-4712.404,-9275.75,512
3.041016,-4701.089,-9270.766,512
3.042969,-4717.962,-9280.905,512
3.044922,-4715.528,-9290.296,512
3.046875,-4725.581,-9287.841,512
3.048828,-4727.549,-9299.378,512
3.050781,-4723.531,-9292.823,512
3.052734,-4717.711,-9292.624,512
3.054688,-4714.537,-9307.694,512
3.056641,-4719.538,-9304.644,512
3.058594,-4720.667,-9298.389,512
3.060547,-4721.515,-9285.38,512
3.0625,-4733.137,-9313.376,512
3.064453,-4722.81,-9298.457,512
3.066406,-4716.215,-9298.384,512
3.068359,-4721.848,-9284.004,512
3.070312,-4720.863,-9250.07,512
3.072266,-4721.238,-9280.808,512
3.074219,-4734.921,-9287.258,512
3.076172,-4722.251,-9280.885,512
3.078125,-4718.55,-9278.755,512
3.080078,-4704.371,-9314.843,512
3.082031,-4706.293,-9321.884,512
3.083984,-4697.471,-9315.136,512
3.085938,-4703.086,-9340.213,512
3.087891,-4726.414,-9274.384,512
3.089844,-4706.232,-9241.432,512
3.091797,-4716.526,-9240.772,512
3.09375,-4710.099,-9296.733,512
3.095703,-4703.395,-9281.968,512
3.097656,-4712.429,-9259.613,512
3.099609,-4713.564,-9254.396,512
3.101562,-4722.27,-9265.542,512
3.103516,-4726.139,-9266.726,512
3.105469,-4719.022,-9261.911,512
3.107422,-4712.807,-9249.093,512
3.109375,-4725.943,-9264.357,512
3.111328,-4716.783,-9275.409,512
3.113281,-4720.527,-9280.352,512
3.115234,-4722.27,-9285.159,512
3.117188,-4714.687,-9275.248,512
3.119141,-4719.021,-9282.178,512
3.121094,-4725.318,-9280.041,512
3.123047,-4713.542,-9265.347,512
3.125,-4711.571,-9285.621,512
3.126953,-4699.203,-9272.428,512
3.128906,-4710.34,-9273.158,512
3.130859,-4703.503,-9280.632,512
3.132812,-4705.066,-9276.351,512
3.134766,-4715.932,-9282.454,512
3.136719,-4713.13,-9274.134,512
3.138672,-4707.584,-9275.505,512
3.140625,-4694.223,-9270.14,512
3.142578,-4706.878,-9276.129,512
3.144531,-4697.879,-9274.321,512
3.146484,-4689.837,-9283.844,512
3.148438,-4689.415,-9292.501,512
3.150391,-4688.748,-9295.118,512
3.152344,-4699.285,-9287.677,512
3.154297,-4692.457,-9292.138,512
3.15625,-4683.572,-9289.275,512
3.158203,-4688.193,-9311.973,512
3.160156,-4687.952,-9300.021,512
3.162109,-4681.903,-9297.123,512
3.164062,-4685.735,-9308.503,512
3.166016,-4687.352,-9321.337,512
3.167969,-4677.347,-9294.491,512
3.169922,-4710.014,-9187.427,512
3.171875,-4716.586,-9216.895,512
3.173828,-4718.975,-9227.849,512
3.175781,-4714.849,-9241.416,512
3.177734,-4706.169,-9293.742,512
3.179688,-4682.6,-9302.854,512
3.181641,-4680.605,-9304.106,512
3.183594,-4705.666,-9280.752,512
3.185547,-4700.774,-9243.019,512
3.1875,-4710.085,-9256.076,512
3.189453,-4711.506,-9277.89,512
3.191406,-4710.318,-9289.156,512
3.193359,-4707.669,-9265.908,512
3.195312,-4719.456,-9279.493,512
3.197266,-4722.781,-9299.129,512
3.199219,-4712.598,-9297.643,512
3.201172,-4714.112,-9304.999,512
3.203125,-4711.63,-9311.127,512
3.205078,-4713.51,-9301.141,512
3.207031,-4709.727,-9286.704,512
3.208984,-4723.466,-9281.898,512
3.210938,-4722.839,-9285.899,512
3.212891,-4713.047,-9292.31,512
3.214844,-4717.275,-9290.283,512
3.216797,-4708.788,-9273.188,512
3.21875,-4713.354,-9286.249,512
3.220703,-4701.886,-9290.16,512
3.222656,-4702.973,-9274.583,512
3.224609,-4712.894,-9325.323,512
3.226562,-4700.514,-9312.952,512
3.228516,-4710.589,-9292.881,512
3.230469,-4718.566,-9298.015,512
3.232422,-4722.336,-9284.247,512
3.234375,-4712.024,-9270.226,512
3.236328,-4721.74,-9283.058,512
3.238281,-4720.921,-9253.623,512
3.240234,-4708.271,-9262.034,512
3.242188,-4695.004,-9312.369,512
3.244141,-4700.599,-9313.765,512
3.246094,-4695.261,-9306.987,512
3.248047,-4715.917,-9248.945,512
3.25,-4724.514,-9250.863,512
3.251953,-4717.023,-9252.336,512
3.253906,-4702.811,-9251.266,512
3.255859,-4699.644,-9276.306,512
3.257812,-4695.508,-9276.341,512
3.259766,-4696.83,-9296.074,512
3.261719,-4706.919,-9281.193,512
3.263672,-4701.598,-9264.207,512
3.265625,-4687.604,-9263.442,512
3.267578,-4704.112,-9251.342,512
3.269531,-4703.758,-9267.147,512
3.271484,-4702.91,-9267.711,512
3.273438,-4690.414,-9258.729,512
3.275391,-4696.298,-9262.509,512
3.277344,-4697.885,-9284.341,512
3.279297,-4694.321,-9291.595,512
3.28125,-4692.593,-9271.871,512
3.283203,-4694.335,-9256.729,512
3.285156,-4701.577,-9278.848,512
3.287109,-4707.983,-9274.15,512
3.289062,-4707.316,-9269.618,512
3.291016,-4703.339,-9279.316,512
3.292969,-4707.71,-9281.098,512
3.294922,-4712.529,-9281.148,512
3.296875,-4710.159,-9304.205,512
3.298828,-4708.09,-9281.868,512
3.300781,-4712.437,-9284.586,512
3.302734,-4713.673,-9297.953,512
3.304688,-4725.768,-9271.13,512
3.306641,-4732.007,-9246.055,512
3.308594,-4726.555,-9273.347,512
3.310547,-4710.132,-9278.574,512
3.3125,-4699.614,-9297.496,512
3.314453,-4706.564,-9282.735,512
3.316406,-4725.161,-9271.48,512
3.318359,-4711.083,-9291.69,512
3.320312,-4712.503,-9305.171,512
3.322266,-4714.662,-9281.926,512
3.324219,-4717.716,-9265.379,512
3.326172,-4716.674,-9293.163,512
3.328125,-4718.427,-9307.25,512
3.330078,-4718.731,-9307.335,512
3.332031,-4714.773,-9326.374,512
3.333984,-4718,-9331.107,512
3.335938,-4730.077,-9286.155,512
3.337891,-4728.485,-9288.239,512
3.339844,-4736.401,-9272.722,512
3.341797,-4743.681,-9273.386,512
3.34375,-4725.823,-9276.478,512
3.345703,-4735.776,-9279.982,512
3.347656,-4728.952,-9295.843,512
3.349609,-4726.858,-9283.055,512
3.351562,-4727.932,-9289.654,512
3.353516,-4735.935,-9304.081,512
3.355469,-4740.564,-9284.108,512
3.357422,-4708.234,-9279.006,512
3.359375,-4729.013,-9294.564,512
3.361328,-4739.309,-9302.598,512
3.363281,-4724.38,-9298.965,512
3.365234,-4729.918,-9297.463,512
3.367188,-4731.252,-9286.678,512
3.369141,-4739.082,-9307.17,512
3.371094,-4732.584,-9309.423,512
3.373047,-4713.142,-9308.907,512
3.375,-4720.417,-9308.098,512
3.376953,-4716.841,-9276.921,512
3.378906,-4725.159,-9301.58,512
3.380859,-4724.052,-9282.177,512
3.382812,-4721.734,-9280.919,512
3.384766,-4721.724,-9328.852,512
3.386719,-4710.559,-9328.436,512
3.388672,-4716.048,-9319.644,512
3.390625,-4709.3,-9321.601,512
3.392578,-4732.027,-9290.592,512
3.394531,-4729.806,-9283.869,512
3.396484,-4728.828,-9278.369,512
3.398438,-4734.521,-9258.407,512
3.400391,-4724.882,-9273.19,512
3.402344,-4722.058,-9291.006,512
3.404297,-4726.399,-9319.589,512
3.40625,-4721.561,-9282.559,512
3.408203,-4720.183,-9303.124,512
3.410156,-4704.752,-9315.172,512
3.412109,-4717.436,-9313.268,512
3.414062,-4721.936,-9266.116,512
3.416016,-4705.721,-9263.821,512
3.417969,-4699.903,-9273.279,512
3.419922,-4710.057,-9269.995,512
3.421875,-4717.626,-9255.141,512
3.423828,-4713.53,-9265.937,512
3.425781,-4713.606,-9266.323,512
3.427734,-4710.797,-9290.319,512
3.429688,-4716.701,-9295.991,512
3.431641,-4702.572,-9286.665,512
3.433594,-4700.98,-9302.91,512
3.435547,-4697.351,-9306.163,512
3.4375,-4699.024,-9308.787,512
3.439453,-4697.878,-9296.392,512
3.441406,-4711.284,-9335.878,512
3.443359,-4713.684,-9330.204,512
3.445312,-4704.207,-9319.095,512
3.447266,-4712.876,-9332.021,512
3.449219,-4719.388,-9306.21,512
3.451172,-4721.289,-9287.334,512
3.453125,-4709.949,-9280.719,512
3.455078,-4713.017,-9276.428,512
3.457031,-4711.303,-9303.923,512
3.458984,-4713.52,-9300.121,512
3.460938,-4710.19,-9285.508,512
3.462891,-4725.345,-9288.762,512
3.464844,-4722.608,-9297.684,512
3.466797,-4702.994,-9306.146,512
3.46875,-4707.148,-9330.438,512
3.470703,-4702.418,-9324.083,512
3.472656,-4712.5,-9315.636,512
3.474609,-4725.406,-9277.507,512
3.476562,-4722.818,-9252.853,512
3.478516,-4728.688,-9291.127,512
3.480469,-4716.52,-9297.516,512
3.482422,-4718.62,-9274.644,512
3.484375,-4724.576,-9274.077,512
3.486328,-4725.647,-9307.113,512
3.488281,-4726.089,-9239.297,512
3.490234,-4723.118,-9256.351,512
3.492188,-4744.589,-9259.28,512
3.494141,-4737.844,-9269.104,512
3.496094,-4720.604,-9275.453,512
3.498047,-4729.46,-9304.911,512
3.5,-4733.071,-9274.631,512
3.501953,-4730.302,-9315.928,512
3.503906,-4718.692,-9333.427,512
3.505859,-4734.561,-9330.599,512
3.507812,-4725.951,-9276.662,512
3.509766,-4738.317,-9260.991,512
3.511719,-4744.643,-9274.922,512
3.513672,-4736.106,-9273.007,512
3.515625,-4748.234,-9284.684,512
3.517578,-4733.115,-9269.024,512
3.519531,-4721.561,-9267.433,512
3.521484,-4733.094,-9266.155,512
3.523438,-4728.098,-9281.061,512
3.525391,-4736.294,-9284.415,512
3.527344,-4742.432,-9288.975,512
3.529297,-4736.02,-9292.298,512
3.53125,-4728.56,-9294.309,512
3.533203,-4718.216,-9305.76,512
3.535156,-4723.385,-9332.565,512
3.537109,-4712.973,-9311.491,512
3.539062,-4735.761,-9309.085,512
3.541016,-4733.479,-9307.433,512
3.542969,-4725.08,-9249.563,512
3.544922,-4719.629,-9236.968,512
3.546875,-4722.912,-9258.348,512
3.548828,-4709.608,-9271.063,512
3.550781,-4697.854,-9276.237,512
3.552734,-4685.665,-9292.778,512
3.554688,-4674.605,-9304.157,512
3.556641,-4661.8,-9302.764,512
3.558594,-4629.139,-9290.668,512
3.560547,-4631.146,-9290.979,512
3.5625,-4633.381,-9299.592,512
3.564453,-4622.413,-9315.11,512
3.566406,-4618.578,-9321.332,512
3.568359,-4612.72,-9346.096,512
3.570312,-4620.013,-9359.933,512
3.572266,-4605.147,-9343.262,512
3.574219,-4631.982,-9360.767,512
3.576172,-4659.198,-9383.47,512
3.578125,-4676.724,-9373.934,512
3.580078,-4702.968,-9395.78,512
3.582031,-4701.843,-9395.503,512
3.583984,-4705.952,-9412.189,512
3.585938,-4710.753,-9404.441,512
3.587891,-4735.738,-9367.6,512
3.589844,-4769.925,-9324.417,512
3.591797,-4770.649,-9322.747,512
3.59375,-4792.602,-9334.523,512
3.595703,-4810.636,-9339.206,512
3.597656,-4848.968,-9304.557,512
3.599609,-4839.78,-9281.735,512
3.601562,-4831.295,-9277.85,512
3.603516,-4830.105,-9284.275,512
3.605469,-4829.07,-9281.882,512
3.607422,-4792.497,-9271.904,512
3.609375,-4784.94,-9316.655,512
3.611328,-4753.495,-9320.752,512
3.613281,-4737.444,-9298.711,512
3.615234,-4740.129,-9314.547,512
3.617188,-4717.606,-9266.665,512
3.619141,-4732.858,-9280.068,512
3.621094,-4723.415,-9293.929,512
3.623047,-4711.625,-9330.642,512
3.625,-4723.355,-9298.848,512
3.626953,-4726.866,-9269.796,512
3.628906,-4727.717,-9277.487,512
3.630859,-4723.333,-9299.614,512
3.632812,-4733.002,-9303.984,512
3.634766,-4731.521,-9290.096,512
3.636719,-4724.009,-9292.412,512
3.638672,-4723.42,-9298.484,512
3.640625,-4717.121,-9297.31,512
3.642578,-4716.319,-9293.219,512
3.644531,-4720.784,-9281.936,512
3.646484,-4725.463,-9315.777,512
3.648438,-4711.216,-9314.762,512
3.650391,-4689.896,-9284.909,512
3.652344,-4720.416,-9294.359,512
3.654297,-4721.048,-9298.576,512
3.65625,-4686.261,-9303.419,512
3.658203,-4689.755,-9312.329,512
3.660156,-4710.837,-9266.744,512
3.662109,-4705.12,-9277.017,512
3.664062,-4695.852,-9265.545,512
3.666016,-4701.907,-9276.724,512
3.667969,-4704.866,-9267.104,512
3.669922,-4698.595,-9273.442,512
3.671875,-4708.876,-9289.437,512
3.673828,-4701.575,-9309.362,512
3.675781,-4688.366,-9307.297,512
3.677734,-4693.13,-9289.811,512
3.679688,-4708.875,-9286.083,512
3.681641,-4700.981,-9262.545,512
3.683594,-4701.197,-9284.771,512
3.685547,-4694.628,-9299.24,512
3.6875,-4687.618,-9316.425,512
3.689453,-4669.1,-9294.04,512
3.691406,-4693.91,-9286.636,512
3.693359,-4704.76,-9293.007,512
3.695312,-4705.614,-9285.227,512
3.697266,-4688.29,-9296.978,512
3.699219,-4681.984,-9289.335,512
3.701172,-4680.543,-9266.141,512
3.703125,-4685.229,-9270.003,512
3.705078,-4681.5,-9288.916,512
3.707031,-4674.856,-9278.948,512
3.708984,-4687.199,-9289.946,512
3.710938,-4682.302,-9292.021,512
3.712891,-4681.934,-9276.804,512
3.714844,-4680.627,-9291.387,512
3.716797,-4680.397,-9290.705,512
3.71875,-4678.036,-9307.129,512
3.720703,-4670.908,-9304.07,512
3.722656,-4674.636,-9276.627,512
3.724609,-4676.009,-9288.491,512
3.726562,-4680.004,-9299.467,512
3.728516,-4668.426,-9305.978,512
3.730469,-4667.229,-9334.847,512
3.732422,-4670.386,-9316.171,512
3.734375,-4668.511,-9292.667,512
3.736328,-4657.551,-9296.891,512
3.738281,-4666.518,-9305.021,512
3.740234,-4654.578,-9304.045,512
3.742188,-4659.229,-9294.176,512
3.744141,-4656.852,-9295.447,512
3.746094,-4660.065,-9292.175,512
3.748047,-4652.857,-9291.082,512
3.75,-4655.001,-9314.671,512
3.751953,-4633.565,-9291.584,512
3.753906,-4639.453,-9314.432,512
3.755859,-4634.118,-9331.125,512
3.757812,-4620.194,-9303.146,512
3.759766,-4631.238,-9283.125,512
3.761719,-4627.629,-9272.527,512
3.763672,-4625.202,-9296.107,512
3.765625,-4618.576,-9279.512,512
3.767578,-4619.496,-9287.685,512
3.769531,-4621.148,-9285.833,512
3.771484,-4604.658,-9301.493,512
3.773438,-4595.209,-9319.949,512
3.775391,-4603.757,-9331.973,512
3.777344,-4596.062,-9296.234,512
3.779297,-4599.025,-9272.144,512
3.78125,-4577.105,-9274.317,512
3.783203,-4583.492,-9287.679,512
3.785156,-4583.335,-9293.244,512
3.787109,-4568.267,-9298.442,512
3.789062,-4570.262,-9301.602,512
3.791016,-4579.951,-9308.568,512
3.792969,-4580.356,-9312.399,512
3.794922,-4568.43,-9303.637,512
3.796875,-4551.741,-9324.727,512
3.798828,-4550.248,-9304.013,512
3.800781,-4549.8,-9309.582,512
3.802734,-4565.219,-9327.507,512
3.804688,-4559.151,-9295.026,512
3.806641,-4563.779,-9299.033,512
3.808594,-4573.068,-9334.231,512
3.810547,-4573.712,-9335.217,512
3.8125,-4566.109,-9331.594,512
3.814453,-4567.872,-9316.092,512
3.816406,-4583.08,-9303.987,512
3.818359,-4586.074,-9318.421,512
3.820312,-4589.536,-9321.859,512
3.822266,-4584.402,-9316.257,512
3.824219,-4597.521,-9307.626,512
3.826172,-4605.49,-9324.466,512
3.828125,-4604.727,-9312.241,512
3.830078,-4609.334,-9282.497,512
3.832031,-4608.691,-9299.244,512
3.833984,-4624.349,-9309.781,512
3.835938,-4625.273,-9303.845,512
3.837891,-4628.355,-9294.696,512
3.839844,-4640.777,-9317.085,512
3.841797,-4646.644,-9349.714,512
3.84375,-4640.845,-9323.712,512
3.845703,-4659.295,-9285.239,512
3.847656,-4659.235,-9289.585,512
3.849609,-4672.334,-9295.258,512
3.851562,-4675.538,-9305.155,512
3.853516,-4656.123,-9286.176,512
3.855469,-4669.443,-9270.524,512
3.857422,-4667.666,-9275.114,512
3.859375,-4675.519,-9288.806,512
3.861328,-4682.6,-9302.312,512
3.863281,-4671.033,-9282.639,512
3.865234,-4676.194,-9275.425,512
3.867188,-4682.742,-9297.16,512
3.869141,-4677.612,-9304.418,512
3.871094,-4683.225,-9312.616,512
3.873047,-4689.702,-9339.538,512
3.875,-4696.713,-9296.149,512
3.876953,-4696.424,-9280.082,512
3.878906,-4718.914,-9270.98,512
3.880859,-4692.602,-9253.433,512
3.882812,-4692.295,-9259.804,512
3.884766,-4705.516,-9255.792,512
3.886719,-4701.686,-9256.895,512
3.888672,-4698.292,-9265.424,512
3.890625,-4697.919,-9269.613,512
3.892578,-4710.902,-9286.549,512
3.894531,-4701.379,-9277.267,512
3.896484,-4703.127,-9287.343,512
3.898438,-4703.353,-9283.54,512
3.900391,-4711.308,-9288.458,512
3.902344,-4702.44,-9294.534,512
3.904297,-4714.989,-9288.495,512
3.90625,-4712.358,-9299.816,512
3.908203,-4695.519,-9324.108,512
3.910156,-4722.441,-9317.326,512
3.912109,-4705.567,-9318.017,512
3.914062,-4699.447,-9316.508,512
3.916016,-4710.795,-9296.833,512
3.917969,-4696.904,-9300.688,512
3.919922,-4707.629,-9292.442,512
3.921875,-4709.752,-9267.597,512
3.923828,-4718.641,-9284.291,512
3.925781,-4721.691,-9298.735,512
3.927734,-4712.704,-9297.934,512
3.929688,-4718.693,-9308.967,512
3.931641,-4709.288,-9277.169,512
3.933594,-4717.129,-9275.161,512
3.935547,-4716.211,-9286.02,512
3.9375,-4722.211,-9299.89,512
3.939453,-4723.753,-9315.485,512
3.941406,-4702.33,-9308.791,512
3.943359,-4709.461,-9320.938,512
3.945312,-4716.962,-9322.591,512
3.947266,-4732.561,-9294.998,512
3.949219,-4732.732,-9283.312,512
3.951172,-4725.567,-9277.143,512
3.953125,-4739.305,-9287.341,512
3.955078,-4733.204,-9316.886,512
3.957031,-4709.806,-9311.646,512
3.958984,-4712.965,-9303.259,512
3.960938,-4723.228,-9281.625,512
3.962891,-4726.368,-9244.344,512
3.964844,-4722.652,-9275.034,512
3.966797,-4713.311,-9270.481,512
3.96875,-4727.566,-9278.112,512
3.970703,-4720.976,-9278.321,512
3.972656,-4713.094,-9260.372,512
3.974609,-4718.45,-9276.007,512
3.976562,-4715.728,-9302.426,512
3.978516,-4721.695,-9289.672,512
3.980469,-4723.262,-9287.084,512
3.982422,-4720.504,-9289.255,512
3.984375,-4718.668,-9291.634,512
3.986328,-4707.486,-9287.01,512
3.988281,-4701.146,-9288.285,512
3.990234,-4715.033,-9289.703,512
3.992188,-4704.602,-9285.71,512
3.994141,-4707.543,-9258.483,512
3.996094,-4722.843,-9277.436,512
3.998047,-4724.592,-9287.305,512
4,-4725.658,-9282.326,512
4.001953,-4714.708,-9284.636,512
4.003906,-4721.566,-9282.818,512
4.005859,-4730.244,-9288.451,512
4.007812,-4714.553,-9287.526,512
4.009766,-4716.858,-9301.39,512
4.011719,-4719.589,-9294.285,512
4.013672,-4707.526,-9281.728,512
4.015625,-4717.429,-9305.967,512
4.017578,-4707.929,-9309.14,512
4.019531,-4708.54,-9302.769,512
4.021484,-4728.919,-9330.838,512
4.023438,-4730.183,-9303.174,512
4.025391,-4729.287,-9296.485,512
4.027344,-4721.75,-9328.206,512
4.029297,-4718.11,-9328.079,512
4.03125,-4708.099,-9296.262,512
4.033203,-4709.986,-9295.658,512
4.035156,-4719.858,-9308.872,512
4.037109,-4716.833,-9305.701,512
4.039062,-4726.403,-9291.962,512
4.041016,-4729.367,-9272.274,512
4.042969,-4752.696,-9296.458,512
4.044922,-4737.173,-9311.547,512
4.046875,-4720.646,-9290.167,512
4.048828,-4713.832,-9293.033,512
4.050781,-4720.468,-9300.632,512
4.052734,-4722.634,-9288.326,512
4.054688,-4741.897,-9270.752,512
4.056641,-4739.18,-9277.995,512
4.058594,-4713.072,-9283.94,512
4.060547,-4725.479,-9295.573,512
4.0625,-4727.943,-9308.576,512
4.064453,-4713.957,-9292.544,512
4.066406,-4726.09,-9289.819,512
4.068359,-4721.49,-9271.494,512
4.070312,-4721.617,-9274.851,512
4.072266,-4695.039,-9272.978,512
4.074219,-4719.747,-9283.723,512
4.076172,-4709.583,-9282.104,512
4.078125,-4705.483,-9307.225,512
4.080078,-4716.799,-9298.61,512
4.082031,-4721.176,-9293.622,512
4.083984,-4727.436,-9276.5,512
4.085938,-4706.73,-9273.396,512
4.087891,-4718.768,-9262.205,512
4.089844,-4728.4,-9293.118,512
4.091797,-4726.472,-9289.719,512
4.09375,-4721.388,-9272.031,512
4.095703,-4741.345,-9288.446,512
4.097656,-4739.02,-9281.355,512
4.099609,-4725.732,-9288.736,512
4.101562,-4729.13,-9285.664,512
4.103516,-4739.528,-9290.203,512
4.105469,-4724.985,-9291.233,512
4.107422,-4727.591,-9296.845,512
4.109375,-4717.15,-9316.838,512
4.111328,-4714.337,-9327.432,512
4.113281,-4719.59,-9311.259,512
4.115234,-4729.263,-9271.135,512
4.117188,-4713.399,-9307.053,512
4.119141,-4706.804,-9331.221,512
4.121094,-4723.731,-9312.691,512
4.123047,-4715.155,-9284.046,512
4.125,-4742.289,-9257.676,512
4.126953,-4738.436,-9266.417,512
4.128906,-4722.292,-9294.419,512
4.130859,-4734.829,-9300.771,512
4.132812,-4731.687,-9274.873,512
4.134766,-4744.331,-9269.958,512
4.136719,-4735.442,-9268.1,512
4.138672,-4710.208,-9274.522,512
4.140625,-4718.507,-9286.537,512
4.142578,-4734.145,-9314.657,512
4.144531,-4735.682,-9308.098,512
4.146484,-4735.609,-9256.041,512
4.148438,-4740.31,-9257.259,512
4.150391,-4727.048,-9294.383,512
4.152344,-4719.351,-9245.89,512
4.154297,-4720.121,-9264.541,512
4.15625,-4715.988,-9272.556,512
4.158203,-4712.229,-9277.797,512
4.160156,-4702.613,-9276.106,512
4.162109,-4704.542,-9268.48,512
4.164062,-4717.575,-9280.299,512
4.166016,-4713.149,-9271.438,512
4.167969,-4723.198,-9281.192,512
4.169922,-4716.918,-9271.068,512
4.171875,-4712.201,-9271.52,512
4.173828,-4717.208,-9292.34,512
4.175781,-4718.12,-9281.982,512
4.177734,-4731.446,-9279.69,512
4.179688,-4717.489,-9272.176,512
4.181641,-4707.47,-9256.061,512
4.183594,-4723.565,-9268.479,512
4.185547,-4714.099,-9280.554,512
4.1875,-4709.279,-9272.452,512
4.189453,-4711.351,-9256.946,512
4.191406,-4705.829,-9285.751,512
4.193359,-4699.454,-9317.102,512
4.195312,-4703.034,-9334.12,512
4.197266,-4700.773,-9356.983,512
4.199219,-4697.06,-9254.828,512
4.201172,-4714.804,-9232.061,512
4.203125,-4722.531,-9239.536,512
4.205078,-4710.705,-9233.963,512
4.207031,-4715.337,-9252.28,512
4.208984,-4720.938,-9264.402,512
4.210938,-4725.615,-9251.848,512
4.212891,-4728.609,-9269.254,512
4.214844,-4727.934,-9269.106,512
4.216797,-4723.278,-9281.223,512
4.21875,-4727.253,-9307.772,512
4.220703,-4720.904,-9289.661,512
4.222656,-4723.768,-9243.002,512
4.224609,-4731.355,-9272.795,512
4.226562,-4726.846,-9301.877,512
4.228516,-4743.454,-9309.514,512
4.230469,-4733.955,-9263.794,512
4.232422,-4732.35,-9252.245,512
4.234375,-4727.612,-9261.685,512
4.236328,-4721.188,-9271.474,512
4.238281,-4728.39,-9292.789,512
4.240234,-4718.52,-9301.515,512
4.242188,-4719.747,-9292.373,512
4.244141,-4720.743,-9306.292,512
4.246094,-4716.816,-9286.225,512
4.248047,-4717.455,-9273.622,512
4.25,-4727.113,-9254.297,512
4.251953,-4720.865,-9251.266,512
4.253906,-4720.488,-9246.049,512
4.255859,-4728.497,-9270.51,512
4.257812,-4727.844,-9294.877,512
4.259766,-4721.754,-9310.511,512
4.261719,-4714.432,-9281.888,512
4.263672,-4698.027,-9279.959,512
4.265625,-4708.578,-9286.104,512
4.267578,-4697.145,-9271.704,512
4.269531,-4696.03,-9284.104,512
4.271484,-4708.411,-9273.259,512
4.273438,-4715.872,-9232.742,512
4.275391,-4723.818,-9235.092,512
4.277344,-4716.426,-9242.688,512
4.279297,-4714.451,-9256.711,512
4.28125,-4706.836,-9262.679,512
4.283203,-4721.409,-9254.436,512
4.285156,-4721.05,-9257.808,512
4.287109,-4725.518,-9284.085,512
4.289062,-4717.232,-9256.907,512
4.291016,-4701.296,-9242.438,512
4.292969,-4716.354,-9270.782,512
4.294922,-4721.404,-9277.721,512
4.296875,-4700.859,-9292.39,512
4.298828,-4705.313,-9314.43,512
4.300781,-4696.068,-9304.82,512
4.302734,-4707.999,-9310.396,512
4.304688,-4716.197,-9250.014,512
4.306641,-4716.221,-9247.062,512
4.308594,-4742.106,-9256.524,512
4.310547,-4722.026,-9251.266,512
4.3125,-4726.855,-9268.014,512
4.314453,-4734.114,-9263.38,512
4.316406,-4729.019,-9271.121,512
4.318359,-4730.193,-9273.555,512
4.320312,-4729.889,-9277.619,512
4.322266,-4719.602,-9290.401,512
4.324219,-4720.555,-9277.8,512
4.326172,-4723.624,-9282.108,512
4.328125,-4727.836,-9289.314,512
4.330078,-4730.482,-9291.781,512
4.332031,-4721.563,-9284.893,512
4.333984,-4710.722,-9304.143,512
4.335938,-4706.912,-9324.993,512
4.337891,-4720.013,-9285.909,512
4.339844,-4719.823,-9266.485,512
4.341797,-4713.296,-9281.25,512
4.34375,-4729.802,-9284.964,512
4.345703,-4736.49,-9293.616,512
4.347656,-4723.69,-9265.664,512
4.349609,-4721.435,-9283.74,512
4.351562,-4717.182,-9295.849,512
4.353516,-4732.02,-9277.954,512
4.355469,-4737.765,-9283.146,512
4.357422,-4708.673,-9262.938,512
4.359375,-4711.673,-9277.797,512
4.361328,-4707.491,-9282.206,512
4.363281,-4730.319,-9272.632,512
4.365234,-4709.541,-9286.787,512
4.367188,-4710.111,-9279.086,512
4.369141,-4718.48,-9272.131,512
4.371094,-4714.419,-9277.428,512
4.373047,-4702.199,-9297.871,512
4.375,-4725.425,-9285.39,512
4.376953,-4732.285,-9275.605,512
4.378906,-4724.679,-9289.756,512
4.380859,-4718.167,-9283.2,512
4.382812,-4716.541,-9287.192,512
4.384766,-4707.378,-9263.515,512
4.386719,-4715.739,-9250.53,512
4.388672,-4722.411,-9255.95,512
4.390625,-4719.916,-9253.57,512
4.392578,-4728.018,-9271.362,512
4.394531,-4716.488,-9282.861,512
4.396484,-4712.85,-9287.667,512
4.398438,-4712.744,-9286.337,512
4.400391,-4703.742,-9296.071,512
4.402344,-4722.799,-9297.628,512
4.404297,-4726.086,-9315.51,512
4.40625,-4709.037,-9310.918,512
4.408203,-4703.262,-9296.486,512
4.410156,-4711.315,-9274.515,512
4.412109,-4708.881,-9267.822,512
4.414062,-4709.887,-9265.866,512
4.416016,-4730.048,-9252.549,512
4.417969,-4725.195,-9277.965,512
4.419922,-4707.67,-9298.489,512
4.421875,-4711.594,-9300.262,512
4.423828,-4718.996,-9288.655,512
4.425781,-4718.375,-9274.584,512
4.427734,-4714.168,-9298.063,512
4.429688,-4698.498,-9294.766,512
4.431641,-4691.023,-9286.047,512
4.433594,-4699.148,-9327.141,512
4.435547,-4713.479,-9330.362,512
4.4375,-4703.292,-9308.947,512
4.439453,-4694.415,-9295.518,512
4.441406,-4692.489,-9318.202,512
4.443359,-4700.564,-9309.584,512
4.445312,-4705.492,-9282.767,512
4.447266,-4696.783,-9256.73,512
4.449219,-4704.173,-9253.883,512
4.451172,-4718.183,-9270.888,512
4.453125,-4719.399,-9272.269,512
4.455078,-4706.646,-9262.503,512
4.457031,-4701.901,-9263.364,512
4.458984,-4702.307,-9277.663,512
4.460938,-4704.703,-9280.534,512
4.462891,-4703.937,-9279.75,512
4.464844,-4680.968,-9266.575,512
4.466797,-4693.6,-9254.245,512
4.46875,-4684.893,-9248.249,512
4.470703,-4693.812,-9254.112,512
4.472656,-4700.004,-9273.946,512
4.474609,-4709.422,-9286.066,512
4.476562,-4717.072,-9289.409,512
4.478516,-4712.625,-9286.84,512
4.480469,-4700.406,-9276.709,512
4.482422,-4712.837,-9275.547,512
4.484375,-4720.364,-9256.343,512
4.486328,-4714.039,-9263,512
4.488281,-4702.646,-9252.013,512
4.490234,-4706.789,-9235.978,512
4.492188,-4707.6,-9250.531,512
4.494141,-4729.028,-9273.484,512
4.496094,-4723.234,-9269.656,512
4.498047,-4707.564,-9263.112,512
4.5,-4712.227,-9271.214,512
4.501953,-4704.455,-9258.181,512
4.503906,-4722.791,-9266.229,512
4.505859,-4711.903,-9279.142,512
4.507812,-4707.874,-9316.53,512
4.509766,-4711.452,-9338.603,512
4.511719,-4705.222,-9343.583,512
4.513672,-4721.614,-9282.354,512
4.515625,-4725.286,-9228.939,512
4.517578,-4708.903,-9238.238,512
4.519531,-4725.136,-9247.309,512
4.521484,-4722.173,-9220.549,512
4.523438,-4718.201,-9229.474,512
4.525391,-4722.493,-9255.026,512
4.527344,-4722.278,-9254.656,512
4.529297,-4710.05,-9254.592,512
4.53125,-4728.437,-9260.131,512
4.533203,-4717.428,-9270.321,512
4.535156,-4702.312,-9272.473,512
4.537109,-4710.969,-9270.451,512
4.539062,-4708.076,-9255.688,512
4.541016,-4720.006,-9259.981,512
4.542969,-4697.405,-9269.488,512
4.544922,-4677.1,-9289.884,512
4.546875,-4661.588,-9292.802,512
4.548828,-4627.9,-9257.305,512
4.550781,-4623.754,-9232.64,512
4.552734,-4617.281,-9249.759,512
4.554688,-4603.247,-9268.864,512
4.556641,-4586.728,-9294.501,512
4.558594,-4579.902,-9308.622,512
4.560547,-4570.926,-9325.98,512
4.5625,-4590.179,-9347.642,512
4.564453,-4606.543,-9358.558,512
4.566406,-4592.306,-9353.048,512
4.568359,-4611.649,-9356.591,512
4.570312,-4663.128,-9367.301,512
4.572266,-4671.381,-9350.132,512
4.574219,-4685.962,-9372.129,512
4.576172,-4699.669,-9370.735,512
4.578125,-4698.68,-9359.316,512
4.580078,-4707.523,-9370.748,512
4.582031,-4716.91,-9373.462,512
4.583984,-4719.479,-9345.337,512
4.585938,-4740.164,-9334.295,512
4.587891,-4766.355,-9334.417,512
4.589844,-4799.042,-9290.093,512
4.591797,-4814.885,-9260.065,512
4.59375,-4827.511,-9281.334,512
4.595703,-4808.68,-9252.498,512
4.597656,-4789.72,-9246.648,512
4.599609,-4771.821,-9273.605,512
4.601562,-4748.918,-9280.401,512
4.603516,-4737.252,-9247.75,512
4.605469,-4714.349,-9239.215,512
4.607422,-4706.24,-9271.378,512
4.609375,-4703.125,-9244.884,512
4.611328,-4702.288,-9247.242,512
4.613281,-4703.051,-9249.04,512
4.615234,-4700.464,-9257.922,512
4.617188,-4689.78,-9263.785,512
4.619141,-4689.5,-9284.236,512
4.621094,-4703.651,-9281.968,512
4.623047,-4698.489,-9267.158,512
4.625,-4698.931,-9269.116,512
4.626953,-4702.953,-9282.538,512
4.628906,-4682.925,-9286.486,512
4.630859,-4691.404,-9284.631,512
4.632812,-4701.107,-9250.928,512
4.634766,-4700.198,-9258.008,512
4.636719,-4722.971,-9257.09,512
4.638672,-4711.129,-9253.771,512
4.640625,-4698.277,-9265.134,512
4.642578,-4691.419,-9276.846,512
4.644531,-4686.78,-9265.483,512
4.646484,-4688.953,-9253.59,512
4.648438,-4696.141,-9255.646,512
4.650391,-4701.145,-9259.051,512
4.652344,-4689.186,-9248.3,512
4.654297,-4680.903,-9266.94,512
4.65625,-4673.174,-9292.756,512
4.658203,-4679.721,-9284.362,512
4.660156,-4681.104,-9289.197,512
4.662109,-4677.877,-9281.26,512
4.664062,-4678.673,-9273.905,512
4.666016,-4664.62,-9262.2,512
4.667969,-4674.986,-9232.015,512
4.669922,-4693.093,-9236.547,512
4.671875,-4686.012,-9260.438,512
4.673828,-4679.712,-9258.637,512
4.675781,-4669.438,-9260.463,512
4.677734,-4669.288,-9280.46,512
4.679688,-4673.721,-9253.435,512
4.681641,-4672.467,-9250.69,512
4.683594,-4676.024,-9263.1,512
4.685547,-4664.969,-9259.583,512
4.6875,-4658.807,-9258.606,512
4.689453,-4649.261,-9226.75,512
4.691406,-4643.737,-9238.027,512
4.693359,-4663.28,-9272.264,512
4.695312,-4660.36,-9243.655,512
4.697266,-4665.966,-9280.848,512
4.699219,-4666.075,-9292.158,512
4.701172,-4641.431,-9309.509,512
4.703125,-4659.61,-9276.275,512
4.705078,-4662.612,-9227.007,512
4.707031,-4652.382,-9256.543,512
4.708984,-4653.962,-9268.806,512
4.710938,-4657.678,-9274.941,512
4.712891,-4650.222,-9265.062,512
4.714844,-4643.113,-9252.743,512
4.716797,-4637.832,-9256.511,512
4.71875,-4645.443,-9261.377,512
4.720703,-4659.436,-9280.06,512
4.722656,-4645.013,-9271.282,512
4.724609,-4637.796,-9273.951,512
4.726562,-4634.78,-9289.496,512
4.728516,-4634.228,-9299.827,512
4.730469,-4640.167,-9287.891,512
4.732422,-4647.55,-9282.839,512
4.734375,-4644.378,-9276.742,512
4.736328,-4647.873,-9253.268,512
4.738281,-4639.481,-9252.099,512
4.740234,-4624.903,-9259.216,512
4.742188,-4638.092,-9295.01,512
4.744141,-4641.18,-9306.113,512
4.746094,-4612.146,-9277.168,512
4.748047,-4610.228,-9278.347,512
4.75,-4609.5,-9289.002,512
4.751953,-4590.437,-9282.991,512
4.753906,-4593.481,-9280.675,512
4.755859,-4595.271,-9265.433,512
4.757812,-4595.157,-9252.519,512
4.759766,-4592.559,-9262.958,512
4.761719,-4600.692,-9292.936,512
4.763672,-4584.003,-9277.594,512
4.765625,-4582.094,-9295.933,512
4.767578,-4586.952,-9279.284,512
4.769531,-4571.573,-9274.613,512
4.771484,-4572.142,-9304.795,512
4.773438,-4567.937,-9309.833,512
4.775391,-4564.034,-9309.078,512
4.777344,-4574.551,-9288.09,512
4.779297,-4565.575,-9296.431,512
4.78125,-4556.609,-9277.869,512
4.783203,-4557.029,-9274.523,512
4.785156,-4557.297,-9279.692,512
4.787109,-4561.698,-9283.475,512
4.789062,-4542.422,-9289.146,512
4.791016,-4542.766,-9294.283,512
4.792969,-4547.436,-9289.223,512
4.794922,-4563.014,-9275.489,512
4.796875,-4556.77,-9278.32,512
4.798828,-4523.749,-9305.355,512
4.800781,-4530.531,-9302.521,512
4.802734,-4543.473,-9287.842,512
4.804688,-4541.869,-9257.653,512
4.806641,-4556.756,-9268.425,512
4.808594,-4555.48,-9261.675,512
4.810547,-4566.211,-9296.087,512
4.8125,-4576.529,-9322.354,512
4.814453,-4573.412,-9299.106,512
4.816406,-4571.083,-9290.656,512
4.818359,-4583.898,-9309.983,512
4.820312,-4595.56,-9342.771,512
4.822266,-4594.043,-9305.25,512
4.824219,-4595.054,-9263.189,512
4.826172,-4608.738,-9269.418,512
4.828125,-4614.051,-9286.612,512
4.830078,-4613.3,-9258.791,512
4.832031,-4632.067,-9278.118,512
4.833984,-4634.338,-9265.534,512
4.835938,-4616.373,-9268.265,512
4.837891,-4643.981,-9289.063,512
4.839844,-4649.677,-9277.401,512
4.841797,-4649.561,-9282.303,512
4.84375,-4662.164,-9270.43,512
4.845703,-4672.997,-9294.353,512
4.847656,-4665.7,-9292.947,512
4.849609,-4686.584,-9269.074,512
4.851562,-4680.642,-9250.631,512
4.853516,-4667.582,-9254.132,512
4.855469,-4675.638,-9240.363,512
4.857422,-4665.471,-9240.538,512
4.859375,-4662.636,-9258.384,512
4.861328,-4678.913,-9280.741,512
4.863281,-4689.866,-9282.353,512
4.865234,-4680.169,-9298.499,512
4.867188,-4679.319,-9320.007,512
4.869141,-4676.185,-9316.527,512
4.871094,-4693.38,-9285.743,512
4.873047,-4706.009,-9235.056,512
4.875,-4697.173,-9240.309,512
4.876953,-4707.401,-9239.539,512
4.878906,-4714.747,-9266.721,512
4.880859,-4714.531,-9268.864,512
4.882812,-4705.417,-9233.054,512
4.884766,-4697.332,-9237.618,512
4.886719,-4712.145,-9258.564,512
4.888672,-4697.106,-9255.903,512
4.890625,-4689.627,-9242.797,512
4.892578,-4692.029,-9275.155,512
4.894531,-4690.157,-9269.584,512
4.896484,-4677.515,-9289.668,512
4.898438,-4682.103,-9305.15,512
4.900391,-4688.218,-9240.169,512
4.902344,-4696.402,-9259.951,512
4.904297,-4702.644,-9250.925,512
4.90625,-4709.296,-9230.305,512
4.908203,-4705.643,-9243.826,512
4.910156,-4702.737,-9252.198,512
4.912109,-4695.842,-9259.393,512
4.914062,-4694.553,-9277.812,512
4.916016,-4681.327,-9274.989,512
4.917969,-4685.972,-9255.984,512
4.919922,-4690.307,-9250.923,512
4.921875,-4699.394,-9248.907,512
4.923828,-4707.722,-9258.885,512
4.925781,-4701.991,-9247.28,512
4.927734,-4689.996,-9271.483,512
4.929688,-4700.232,-9246.986,512
4.931641,-4703.172,-9248.405,512
4.933594,-4688.498,-9240.344,512
4.935547,-4702.426,-9236.325,512
4.9375,-4702.953,-9244.639,512
4.939453,-4705.771,-9249.788,512
4.941406,-4701.265,-9261.363,512
4.943359,-4706.597,-9264.715,512
4.945312,-4703.33,-9277.62,512
4.947266,-4702.493,-9298.349,512
4.949219,-4700.47,-9309.475,512
4.951172,-4703.633,-9278.471,512
4.953125,-4695.133,-9249.986,512
4.955078,-4697.644,-9254.127,512
4.957031,-4694.88,-9284.935,512
4.958984,-4690.88,-9286.869,512
4.960938,-4699.829,-9255.247,512
4.962891,-4708.448,-9250.53,512
4.964844,-4693.095,-9247.075,512
4.966797,-4687.477,-9253.538,512
4.96875,-4687.452,-9256.611,512
4.970703,-4690.976,-9252.088,512
4.972656,-4689.756,-9263.161,512
4.974609,-4683.806,-9260.985,512
4.976562,-4690.912,-9295.132,512
4.978516,-4687.264,-9311.099,512
4.980469,-4690.041,-9272.119,512
4.982422,-4698.1,-9259.947,512
4.984375,-4696.028,-9237.613,512
4.986328,-4706.666,-9227.255,512
4.988281,-4695.054,-9240.503,512
4.990234,-4684.176,-9244.166,512
4.992188,-4693.34,-9264.366,512
4.994141,-4674.659,-9280.674,512
4.996094,-4678.117,-9283.319,512
4.998047,-4683.511,-9273.856,512
5,-4701.493,-9283.13,512
5.001953,-4689.333,-9266.811,512
5.003906,-4689.651,-9283.171,512
5.005859,-4684.664,-9271.703,512
5.007812,-4675.614,-9273.214,512
5.009766,-4685.119,-9279.595,512
5.011719,-4688.879,-9248.429,512
5.013672,-4692.57,-9232.105,512
5.015625,-4701.642,-9267.217,512
5.017578,-4679.531,-9272.312,512
5.019531,-4671.978,-9240.846,512
5.021484,-4683.923,-9245.984,512
5.023438,-4693.779,-9251.004,512
5.025391,-4692.187,-9256.176,512
5.027344,-4691.271,-9265.99,512
5.029297,-4714.101,-9274.975,512
5.03125,-4697.54,-9279.614,512
5.033203,-4687.184,-9287.902,512
5.035156,-4695.389,-9282.184,512
5.037109,-4692.53,-9279.406,512
5.039062,-4708.189,-9289.001,512
5.041016,-4696.676,-9275.994,512
5.042969,-4683.214,-9299.215,512
5.044922,-4706.628,-9308.894,512
5.046875,-4696.361,-9291.725,512
5.048828,-4704.263,-9273.084,512
5.050781,-4713.288,-9285.74,512
5.052734,-4699.47,-9267.983,512
5.054688,-4690.562,-9269.444,512
5.056641,-4693.464,-9278.902,512
5.058594,-4703.821,-9281.454,512
5.060547,-4694.975,-9262.854,512
5.0625,-4691.506,-9262.54,512
5.064453,-4696.885,-9248.309,512
5.066406,-4699.128,-9256.495,512
5.068359,-4700.541,-9279.865,512
5.070312,-4691.169,-9275.707,512
5.072266,-4680.585,-9273.989,512
5.074219,-4686.274,-9274.944,512
5.076172,-4695.864,-9320.904,512
5.078125,-4697.356,-9286.36,512
5.080078,-4691.341,-9262.446,512
5.082031,-4690.109,-9285.954,512
5.083984,-4708.239,-9295.766,512
5.085938,-4709.83,-9263.865,512
5.087891,-4690.782,-9262.467,512
5.089844,-4685.189,-9264.418,512
5.091797,-4692.707,-9264.131,512
5.09375,-4690.978,-9271.415,512
5.095703,-4696.6,-9252.654,512
5.097656,-4698.743,-9262.231,512
5.099609,-4695.833,-9266.137,512
5.101562,-4705.392,-9257.543,512
5.103516,-4710.58,-9279.504,512
5.105469,-4701.44,-9265.426,512
5.107422,-4689.543,-9277.493,512
5.109375,-4696.447,-9300.19,512
5.111328,-4697.562,-9280.499,512
5.113281,-4709.052,-9277.019,512
5.115234,-4714.424,-9264.341,512
5.117188,-4712.331,-9263.035,512
5.119141,-4692.837,-9256.714,512
5.121094,-4696.959,-9291.252,512
5.123047,-4692.641,-9286.823,512
5.125,-4704.413,-9267.006,512
5.126953,-4728.908,-9266.063,512
5.128906,-4719.027,-9266.712,512
5.130859,-4704.761,-9263.73,512
5.132812,-4704.324,-9262.683,512
5.134766,-4703.124,-9262.105,512
5.136719,-4715.643,-9261.993,512
5.138672,-4724.477,-9270.226,512
5.140625,-4707.692,-9263.092,512
5.142578,-4695.509,-9260.495,512
5.144531,-4708.241,-9250.179,512
5.146484,-4716.23,-9267.472,512
5.148438,-4712.882,-9260.901,512
5.150391,-4712.325,-9290.889,512
5.152344,-4710.978,-9296.157,512
5.154297,-4707.619,-9248.724,512
5.15625,-4709.435,-9273.387,512
5.158203,-4705.399,-9265.861,512
5.160156,-4715.851,-9285.323,512
5.162109,-4698.893,-9286.508,512
5.164062,-4689.856,-9277.616,512
5.166016,-4684.665,-9277.832,512
5.167969,-4684.121,-9328.857,512
5.169922,-4695.375,-9350.722,512
5.171875,-4678.093,-9305.343,512
5.173828,-4682.27,-9255.792,512
5.175781,-4717.735,-9228.221,512
5.177734,-4708.484,-9227.365,512
5.179688,-4704.444,-9228.174,512
5.181641,-4714.669,-9244.279,512
5.183594,-4688.947,-9256.29,512
5.185547,-4701.698,-9263.661,512
5.1875,-4703.113,-9278.577,512
5.189453,-4701.139,-9284.166,512
5.191406,-4707.494,-9258.148,512
5.193359,-4688.503,-9263.712,512
5.195312,-4687.637,-9267.876,512
5.197266,-4690.197,-9259.556,512
5.199219,-4706.411,-9273.964,512
5.201172,-4687.02,-9259.959,512
5.203125,-4699.517,-9279.033,512
5.205078,-4713.907,-9267.493,512
5.207031,-4694.156,-9235.732,512
5.208984,-4709.463,-9253.576,512
5.210938,-4707.013,-9256.867,512
5.212891,-4690.93,-9254.757,512
5.214844,-4686.672,-9242.954,512
5.216797,-4689.584,-9241.964,512
5.21875,-4688.962,-9248.589,512
5.220703,-4697.174,-9259.16,512
5.222656,-4707.537,-9265.961,512
5.224609,-4703.046,-9258.637,512
5.226562,-4709.974,-9265.267,512
5.228516,-4707.702,-9286.284,512
5.230469,-4694.333,-9305.31,512
5.232422,-4699.185,-9269.695,512
5.234375,-4691.786,-9274.881,512
5.236328,-4684.788,-9271.161,512
5.238281,-4692.768,-9256.697,512
5.240234,-4699.182,-9261.021,512
5.242188,-4716.082,-9258.789,512
5.244141,-4713.842,-9243.421,512
5.246094,-4708.738,-9244.994,512
5.248047,-4706.218,-9264.633,512
5.25,-4695.016,-9253.902,512
5.251953,-4696.274,-9273.657,512
5.253906,-4700.661,-9300.641,512
5.255859,-4704.634,-9323.24,512
5.257812,-4698.448,-9337.292,512
5.259766,-4695.663,-9294.86,512
5.261719,-4709.07,-9259.507,512
5.263672,-4697.439,-9244.957,512
5.265625,-4705.982,-9267.751,512
5.267578,-4700.875,-9258.034,512
5.269531,-4702.977,-9240.324,512
5.271484,-4713.957,-9255.71,512
5.273438,-4709.059,-9257.255,512
5.275391,-4696.005,-9272.285,512
5.277344,-4684.441,-9278.569,512
5.279297,-4703.992,-9278.228,512
5.28125,-4687.507,-9282.54,512
5.283203,-4680.108,-9274.536,512
5.285156,-4702.36,-9267.946,512
5.287109,-4703.353,-9270.305,512
5.289062,-4699.487,-9233.991,512
5.291016,-4707.916,-9221.428,512
5.292969,-4695.314,-9230.691,512
5.294922,-4703.206,-9255.148,512
5.296875,-4704.535,-9255.862,512
5.298828,-4688.655,-9251.573,512
5.300781,-4699.79,-9246.347,512
5.302734,-4692.703,-9245.754,512
5.304688,-4678.064,-9267.659,512
5.306641,-4689.924,-9285.03,512
5.308594,-4701.01,-9247.005,512
5.310547,-4689.438,-9256.399,512
5.3125,-4686.692,-9281.548,512
5.314453,-4684.665,-9298.38,512
5.316406,-4692.44,-9269.799,512
5.318359,-4681.936,-9251.021,512
5.320312,-4689.559,-9245.468,512
5.322266,-4691.426,-9228.469,512
5.324219,-4699.528,-9232.642,512
5.326172,-4690.05,-9250.99,512
5.328125,-4674.442,-9258.925,512
5.330078,-4679.515,-9268.801,512
5.332031,-4697.693,-9259.929,512
5.333984,-4714.643,-9244.039,512
5.335938,-4671.36,-9248.605,512
5.337891,-4666.153,-9289.479,512
5.339844,-4668.212,-9305.639,512
5.341797,-4665.365,-9306.237,512
5.34375,-4676.964,-9234.7,512
5.345703,-4694.125,-9226.275,512
5.347656,-4684.865,-9216.784,512
5.349609,-4690.23,-9208.825,512
5.351562,-4710.803,-9230.666,512
5.353516,-4682.058,-9270.281,512
5.355469,-4687.7,-9273.476,512
5.357422,-4690.951,-9241.841,512
5.359375,-4683.282,-9248.952,512
5.361328,-4691.563,-9256.181,512
5.363281,-4689.081,-9266.219,512
5.365234,-4691.306,-9259.573,512
5.367188,-4702.115,-9267.849,512
5.369141,-4705.63,-9279.338,512
5.371094,-4695.31,-9269.079,512
5.373047,-4708.666,-9265.638,512
5.375,-4710.079,-9267.041,512
5.376953,-4696.001,-9257.437,512
5.378906,-4688.669,-9250.962,512
5.380859,-4683.487,-9246.123,512
5.382812,-4688.212,-9259.657,512
5.384766,-4683.783,-9255.271,512
5.386719,-4677.131,-9254.303,512
5.388672,-4678.552,-9256.121,512
5.390625,-4701.767,-9264.338,512
5.392578,-4698.967,-9282.076,512
5.394531,-4687.778,-9273.475,512
5.396484,-4690.527,-9269.02,512
5.398438,-4690.934,-9285.5,512
5.400391,-4700.155,-9303.795,512
5.402344,-4695.59,-9322.365,512
5.404297,-4682.234,-9324.687,512
5.40625,-4685.668,-9307.696,512
5.408203,-4674.022,-9305.681,512
5.410156,-4686.796,-9263.011,512
5.412109,-4694.083,-9255.544,512
5.414062,-4703.977,-9247.419,512
5.416016,-4693.228,-9278.064,512
5.417969,-4693.982,-9296.322,512
5.419922,-4695.175,-9322.332,512
5.421875,-4690.04,-9332.484,512
5.423828,-4694.835,-9326.805,512
5.425781,-4703.476,-9326.97,512
5.427734,-4724.532,-9260.138,512
5.429688,-4727.479,-9286.222,512
5.431641,-4704.418,-9272.485,512
5.433594,-4700.868,-9261.568,512
5.435547,-4715.997,-9275.784,512
5.4375,-4712.794,-9277.642,512
5.439453,-4713.773,-9285.973,512
5.441406,-4714.123,-9291.099,512
5.443359,-4699.075,-9305.554,512
5.445312,-4708.008,-9294.58,512
5.447266,-4712.909,-9294.974,512
5.449219,-4724.656,-9284.412,512
5.451172,-4714.267,-9296.679,512
5.453125,-4715.521,-9292.285,512
5.455078,-4723.393,-9278.774,512
5.457031,-4728.931,-9270.171,512
5.458984,-4728.256,-9270.471,512
5.460938,-4728.967,-9292.809,512
5.462891,-4718.801,-9290.338,512
5.464844,-4724.62,-9295.67,512
5.466797,-4718.461,-9272.357,512
5.46875,-4711.405,-9280.119,512
5.470703,-4726.144,-9286.983,512
5.472656,-4720.083,-9291.695,512
5.474609,-4725.989,-9326.778,512
5.476562,-4720.329,-9312.479,512
5.478516,-4720.979,-9320.699,512
5.480469,-4721.025,-9326.134,512
5.482422,-4723.96,-9306.32,512
5.484375,-4710.281,-9279.312,512
5.486328,-4723.992,-9284.545,512
5.488281,-4727.227,-9298.127,512
5.490234,-4720.003,-9280.66,512
5.492188,-4719.805,-9259.189,512
5.494141,-4711.792,-9287.475,512
5.496094,-4731.691,-9300.806,512
5.498047,-4721.348,-9300.377,512
5.5,-4711.178,-9281.892,512
5.501953,-4717.41,-9274.102,512
5.503906,-4722.573,-9280.716,512
5.505859,-4721.395,-9273.911,512
5.507812,-4704.097,-9255.039,512
5.509766,-4706.918,-9268.251,512
5.511719,-4730.286,-9265.076,512
5.513672,-4712.987,-9257.308,512
5.515625,-4709.215,-9276.366,512
5.517578,-4699.711,-9295.372,512
5.519531,-4697.75,-9255.023,512
5.521484,-4696.415,-9311.368,512
5.523438,-4677.842,-9270.358,512
5.525391,-4680.69,-9219.758,512
5.527344,-4692.925,-9232.947,512
5.529297,-4683.526,-9239.309,512
5.53125,-4672.225,-9233.163,512
5.533203,-4655.176,-9237.317,512
5.535156,-4634.516,-9238.169,512
5.537109,-4606.445,-9251.633,512
5.539062,-4577.691,-9285.557,512
5.541016,-4571.907,-9301.902,512
5.542969,-4569.337,-9319.952,512
5.544922,-4563.609,-9339.19,512
5.546875,-4566.487,-9330.334,512
5.548828,-4568.698,-9334.966,512
5.550781,-4573.302,-9344.707,512
5.552734,-4582.68,-9357.36,512
5.554688,-4617.712,-9338.125,512
5.556641,-4648.221,-9355.279,512
5.558594,-4653.298,-9347.813,512
5.560547,-4665.322,-9336.355,512
5.5625,-4677.98,-9342.76,512
5.564453,-4689.605,-9323.864,512
5.566406,-4688.543,-9316,512
5.568359,-4698.957,-9313.286,512
5.570312,-4715.686,-9304.457,512
5.572266,-4751.627,-9298.893,512
5.574219,-4787.755,-9268.967,512
5.576172,-4813.563,-9250.526,512
5.578125,-4798.877,-9247.084,512
5.580078,-4780.96,-9250.816,512
5.582031,-4779.739,-9275.03,512
5.583984,-4780.989,-9281.083,512
5.585938,-4755.087,-9228.402,512
5.587891,-4749.555,-9231.782,512
5.589844,-4743.732,-9270.387,512
5.591797,-4722.522,-9273.114,512
5.59375,-4722.474,-9296.604,512
5.595703,-4708.153,-9277.563,512
5.597656,-4699.843,-9260.761,512
5.599609,-4705.857,-9282.696,512
5.601562,-4697.182,-9234.397,512
5.603516,-4693.545,-9234.719,512
5.605469,-4696.534,-9251.593,512
5.607422,-4689.02,-9262.121,512
5.609375,-4700.185,-9263.22,512
5.611328,-4691.812,-9268.003,512
5.613281,-4681.138,-9273.23,512
5.615234,-4688.144,-9265.612,512
5.617188,-4700.5,-9245.93,512
5.619141,-4695.636,-9257.523,512
5.621094,-4692.85,-9251.839,512
5.623047,-4688.43,-9271.389,512
5.625,-4680.728,-9251.097,512
5.626953,-4682.36,-9252.947,512
5.628906,-4684.123,-9288.472,512
5.630859,-4678.278,-9257.409,512
5.632812,-4684.042,-9255.062,512
5.634766,-4674.008,-9271.726,512
5.636719,-4677.113,-9255.832,512
5.638672,-4677.314,-9230.696,512
5.640625,-4670.049,-9255.362,512
5.642578,-4677.962,-9246.609,512
5.644531,-4681.741,-9231.98,512
5.646484,-4674.215,-9246.172,512
5.648438,-4662.041,-9247.169,512
5.650391,-4648.519,-9218.638,512
5.652344,-4662.384,-9236.064,512
5.654297,-4675.443,-9264.351,512
5.65625,-4657.926,-9250.226,512
5.658203,-4656.282,-9236.229,512
5.660156,-4668.759,-9239.162,512
5.662109,-4675.411,-9250.764,512
5.664062,-4675.697,-9224.829,512
5.666016,-4666.188,-9236.148,512
5.667969,-4659.27,-9241.867,512
5.669922,-4671.077,-9257.623,512
5.671875,-4667.874,-9245.7,512
5.673828,-4670.482,-9248.166,512
5.675781,-4661.406,-9266.631,512
5.677734,-4667.968,-9284.995,512
5.679688,-4670.045,-9285.046,512
5.681641,-4675.322,-9298.41,512
5.683594,-4674.351,-9248.533,512
5.685547,-4678.272,-9247.271,512
5.6875,-4672.949,-9272.702,512
5.689453,-4672.241,-9261.757,512
5.691406,-4676.651,-9262.63,512
5.693359,-4670.89,-9258.989,512
5.695312,-4668.897,-9250.65,512
5.697266,-4660.531,-9236.617,512
5.699219,-4656.96,-9246.039,512
5.701172,-4645.975,-9234.154,512
5.703125,-4652.406,-9240.473,512
5.705078,-4653.24,-9246.36,512
5.707031,-4654.174,-9257.228,512
5.708984,-4637.708,-9245.754,512
5.710938,-4636.096,-9257.405,512
5.712891,-4642.14,-9256.149,512
5.714844,-4649.95,-9265.894,512
5.716797,-4645.254,-9271.996,512
5.71875,-4631.951,-9240.289,512
5.720703,-4634.145,-9257.452,512
5.722656,-4638.673,-9262.342,512
5.724609,-4620.697,-9255.366,512
5.726562,-4614.059,-9250.261,512
5.728516,-4623.878,-9282.473,512
5.730469,-4599.292,-9255.508,512
5.732422,-4593.938,-9265.203,512
5.734375,-4604.984,-9253.524,512
5.736328,-4594.327,-9249.539,512
5.738281,-4595.291,-9259.314,512
5.740234,-4589.055,-9254.063,512
5.742188,-4597.22,-9282.042,512
5.744141,-4591.562,-9253.973,512
5.746094,-4568.559,-9263.593,512
5.748047,-4560.078,-9322.954,512
5.75,-4553.516,-9338.072,512
5.751953,-4552.902,-9286.207,512
5.753906,-4570.358,-9233.974,512
5.755859,-4562.458,-9210.619,512
5.757812,-4557.421,-9206.376,512
5.759766,-4556.508,-9229.55,512
5.761719,-4551.142,-9247.478,512
5.763672,-4549.029,-9250.903,512
5.765625,-4541.722,-9240.114,512
5.767578,-4550.212,-9265.635,512
5.769531,-4549.674,-9293.584,512
5.771484,-4542.066,-9306.407,512
5.773438,-4527.447,-9280.915,512
5.775391,-4546.16,-9271.261,512
5.777344,-4546.42,-9252.583,512
5.779297,-4534.185,-9268.352,512
5.78125,-4536.128,-9274.389,512
5.783203,-4538.886,-9268.101,512
5.785156,-4533.284,-9267.597,512
5.787109,-4533.795,-9254.826,512
5.789062,-4537.614,-9271.433,512
5.791016,-4540.201,-9281.808,512
5.792969,-4548.793,-9266.865,512
5.794922,-4562.164,-9291.918,512
5.796875,-4560.909,-9278.114,512
5.798828,-4561.884,-9258.229,512
5.800781,-4561.185,-9273.246,512
5.802734,-4559.541,-9263.236,512
5.804688,-4569.963,-9256.855,512
5.806641,-4584.035,-9276.312,512
5.808594,-4580.934,-9271.381,512
5.810547,-4582.867,-9255.203,512
5.8125,-4592.253,-9259.601,512
5.814453,-4597.236,-9262.733,512
5.816406,-4601.73,-9247.911,512
5.818359,-4605.769,-9257.739,512
5.820312,-4611.12,-9275.991,512
5.822266,-4615.011,-9275.813,512
5.824219,-4631.593,-9265.563,512
5.826172,-4650.194,-9275.735,512
5.828125,-4635.517,-9294.333,512
5.830078,-4630.785,-9314.194,512
5.832031,-4652.983,-9300.478,512
5.833984,-4657.536,-9232.341,512
5.835938,-4678.918,-9184.368,512
5.837891,-4677.141,-9200.525,512
5.839844,-4681.519,-9210.949,512
5.841797,-4684.004,-9236.527,512
5.84375,-4685.481,-9251.811,512
5.845703,-4677.828,-9242.46,512
5.847656,-4680.881,-9233.728,512
5.849609,-4664.383,-9230.128,512
5.851562,-4680.588,-9253.031,512
5.853516,-4699.564,-9261.37,512
5.855469,-4685.069,-9250.86,512
5.857422,-4682.109,-9208.952,512
5.859375,-4677.084,-9200.052,512
5.861328,-4680.971,-9229.054,512
5.863281,-4684.652,-9228.179,512
5.865234,-4680.265,-9246.359,512
5.867188,-4697.852,-9255.324,512
5.869141,-4706.86,-9261.92,512
5.871094,-4690.185,-9262.655,512
5.873047,-4700.158,-9222.699,512
5.875,-4687.163,-9215.423,512
5.876953,-4688.482,-9224.935,512
5.878906,-4693.054,-9253.742,512
5.880859,-4698.435,-9250.503,512
5.882812,-4699.188,-9256.868,512
5.884766,-4691.402,-9258.429,512
5.886719,-4694.815,-9245.772,512
5.888672,-4698.766,-9243.619,512
5.890625,-4703.217,-9233.327,512
5.892578,-4691.467,-9223.588,512
5.894531,-4696.763,-9262.229,512
5.896484,-4700.703,-9263.198,512
5.898438,-4701.369,-9228.899,512
5.900391,-4697.72,-9231.123,512
5.902344,-4693.07,-9242.129,512
5.904297,-4686.517,-9244.909,512
5.90625,-4679.609,-9279.565,512
5.908203,-4676.911,-9274.483,512
5.910156,-4679.811,-9257.403,512
5.912109,-4691.943,-9239.34,512
5.914062,-4691.916,-9204.826,512
5.916016,-4685.613,-9205.085,512
5.917969,-4692.116,-9221.446,512
5.919922,-4678.415,-9225.852,512
5.921875,-4671.707,-9220.947,512
5.923828,-4685.067,-9241.545,512
5.925781,-4685.84,-9239.539,512
5.927734,-4703.404,-9214.752,512
5.929688,-4695.216,-9231.584,512
5.931641,-4693.113,-9225.819,512
5.933594,-4684.829,-9232.742,512
5.935547,-4683.655,-9268.959,512
5.9375,-4689.014,-9251.872,512
5.939453,-4687.475,-9243.823,512
5.941406,-4695.578,-9236.255,512
5.943359,-4688.819,-9233.029,512
5.945312,-4699.401,-9238.604,512
5.947266,-4699.358,-9222.179,512
5.949219,-4689.636,-9232.002,512
5.951172,-4698.815,-9224.581,512
5.953125,-4691.702,-9227.562,512
5.955078,-4700.003,-9234.336,512
5.957031,-4694.679,-9234.554,512
5.958984,-4690.056,-9261.206,512
5.960938,-4703.383,-9290.921,512
5.962891,-4691.353,-9288.282,512
5.964844,-4693.988,-9290.257,512
5.966797,-4709.67,-9259.772,512
5.96875,-4713.583,-9221.478,512
5.970703,-4700.753,-9277.953,512
5.972656,-4683.644,-9253.672,512
5.974609,-4694.964,-9236.117,512
5.976562,-4714.396,-9252.475,512
5.978516,-4710.015,-9231.771,512
5.980469,-4698.317,-9232.782,512
5.982422,-4704.044,-9245.607,512
5.984375,-4704.36,-9236.62,512
5.986328,-4713.569,-9247.226,512
5.988281,-4701.044,-9228.951,512
5.990234,-4707.804,-9247.455,512
5.992188,-4712.783,-9261.066,512
5.994141,-4713.505,-9251.197,512
5.996094,-4705.188,-9237.152,512
5.998047,-4708.645,-9253.192,512
6,-4694.246,-9253.702,512
6.001953,-4702.501,-9252.901,512
6.003906,-4705.772,-9275.902,512
6.005859,-4695.422,-9260.026,512
6.007812,-4702.664,-9264.175,512
6.009766,-4691.036,-9270.383,512
6.011719,-4693.122,-9267.01,512
6.013672,-4696.514,-9246.903,512
6.015625,-4698.987,-9209.665,512
6.017578,-4685.338,-9210.705,512
6.019531,-4695.801,-9230.791,512
6.021484,-4694.508,-9251.685,512
6.023438,-4702.552,-9242.482,512
6.025391,-4710.375,-9239.717,512
6.027344,-4699.67,-9243.558,512
6.029297,-4701.361,-9253.257,512
6.03125,-4699.012,-9274.178,512
6.033203,-4696.895,-9283.062,512
6.035156,-4684.014,-9296.52,512
6.037109,-4689.34,-9233.208,512
6.039062,-4697.73,-9209.138,512
6.041016,-4693.647,-9233.422,512
6.042969,-4699.838,-9242.421,512
6.044922,-4692.56,-9264.05,512
6.046875,-4685.667,-9256.228,512
6.048828,-4682.941,-9274.812,512
6.050781,-4667.043,-9260.238,512
6.052734,-4675.448,-9236.827,512
6.054688,-4682.605,-9245.836,512
6.056641,-4683.394,-9233.877,512
6.058594,-4714.101,-9246.195,512
6.060547,-4712.987,-9229.047,512
6.0625,-4707.57,-9234.539,512
6.064453,-4705.526,-9246.418,512
6.066406,-4703.955,-9242.495,512
6.068359,-4695.543,-9234.519,512
6.070312,-4702.067,-9240.122,512
6.072266,-4693.221,-9255.271,512
6.074219,-4703.033,-9240.401,512
6.076172,-4707.164,-9238.079,512
6.078125,-4706.619,-9252.906,512
6.080078,-4705.614,-9260.576,512
6.082031,-4698.416,-9280.664,512
6.083984,-4683.813,-9264.185,512
6.085938,-4700.758,-9223.241,512
6.087891,-4714.853,-9224.325,512
6.089844,-4705.021,-9229.236,512
6.091797,-4706.376,-9226.736,512
6.09375,-4708.695,-9236.666,512
6.095703,-4703.369,-9243.672,512
6.097656,-4699.215,-9238.913,512
6.099609,-4682.336,-9286.104,512
6.101562,-4666.746,-9311.183,512
6.103516,-4677.994,-9278.754,512
6.105469,-4672.066,-9238.753,512
6.107422,-4699.11,-9210.978,512
6.109375,-4704.195,-9193.725,512
6.111328,-4692.034,-9206.108,512
6.113281,-4688.985,-9226.558,512
6.115234,-4694.786,-9244.104,512
6.117188,-4682.633,-9218.817,512
6.119141,-4666.685,-9218.962,512
6.121094,-4676.837,-9232.817,512
6.123047,-4677.923,-9240.359,512
6.125,-4674.485,-9254.506,512
6.126953,-4688.182,-9253.733,512
6.128906,-4676.607,-9247.477,512
6.130859,-4675.177,-9232.37,512
6.132812,-4668.844,-9244.615,512
6.134766,-4668.342,-9245.887,512
6.136719,-4687.412,-9231.436,512
6.138672,-4688.366,-9233.002,512
6.140625,-4677.678,-9223.04,512
6.142578,-4672.01,-9226.081,512
6.144531,-4680.794,-9257.108,512
6.146484,-4680.421,-9244.628,512
6.148438,-4700.094,-9233.361,512
6.150391,-4702.901,-9230.232,512
6.152344,-4689.575,-9241.345,512
6.154297,-4682.436,-9235.853,512
6.15625,-4669.683,-9230.817,512
6.158203,-4668.244,-9241.018,512
6.160156,-4676.839,-9248.845,512
6.162109,-4675.871,-9267.012,512
6.164062,-4669.247,-9277.673,512
6.166016,-4664.911,-9293.528,512
6.167969,-4671.212,-9287.938,512
6.169922,-4684.481,-9258.667,512
6.171875,-4692.869,-9244.292,512
6.173828,-4695.353,-9218.072,512
6.175781,-4693.809,-9209.19,512
6.177734,-4704.869,-9227.325,512
6.179688,-4689.944,-9206.508,512
6.181641,-4699.224,-9217.387,512
6.183594,-4704.718,-9222.293,512
6.185547,-4678.618,-9226.021,512
6.1875,-4680.768,-9252.523,512
6.189453,-4669.276,-9222.581,512
6.191406,-4673.855,-9239.458,512
6.193359,-4691.872,-9267.623,512
6.195312,-4676.049,-9285.714,512
6.197266,-4669.682,-9266.073,512
6.199219,-4664.481,-9254.063,512
6.201172,-4674.041,-9202.341,512
6.203125,-4678.977,-9198.92,512
6.205078,-4678.51,-9213.369,512
6.207031,-4683.935,-9228.757,512
6.208984,-4681.42,-9220.009,512
6.210938,-4687.021,-9231.493,512
6.212891,-4681.739,-9233.291,512
6.214844,-4680.166,-9245.408,512
6.216797,-4691.203,-9218.719,512
6.21875,-4708.215,-9216.08,512
6.220703,-4685.387,-9234.879,512
6.222656,-4679.925,-9237.41,512
6.224609,-4675.493,-9243.189,512
6.226562,-4674.362,-9250.962,512
6.228516,-4684.633,-9266.596,512
6.230469,-4680.046,-9266.122,512
6.232422,-4687.575,-9234.97,512
6.234375,-4687.414,-9220.409,512
6.236328,-4672.627,-9238.611,512
6.238281,-4687.939,-9212.293,512
6.240234,-4691.637,-9230.934,512
6.242188,-4671.267,-9250.305,512
6.244141,-4684.666,-9258.844,512
6.246094,-4690.482,-9288.614,512
6.248047,-4696.391,-9218.732,512
6.25,-4699.115,-9191.371,512
6.251953,-4710.299,-9213.325,512
6.253906,-4707.896,-9221.023,512
6.255859,-4700.569,-9227.474,512
6.257812,-4696.879,-9249.736,512
6.259766,-4694.25,-9261.521,512
6.261719,-4687.313,-9249.71,512
6.263672,-4685.792,-9221.104,512
6.265625,-4689.863,-9205.021,512
6.267578,-4707.599,-9217.188,512
6.269531,-4710.409,-9238.847,512
6.271484,-4692.412,-9237.033,512
6.273438,-4682.822,-9259.482,512
6.275391,-4690.4,-9288.215,512
6.277344,-4692.361,-9240.601,512
6.279297,-4696.792,-9235.27,512
6.28125,-4699.062,-9234.214,512
6.283203,-4699.417,-9225.333,512
6.285156,-4687.272,-9221.358,512
6.287109,-4683.86,-9216.71,512
6.289062,-4690.238,-9234.642,512
6.291016,-4689.744,-9240.199,512
6.292969,-4684.089,-9257.64,512
6.294922,-4695.657,-9276.19,512
6.296875,-4658.613,-9242.94,512
6.298828,-4675.445,-9262.986,512
6.300781,-4688.606,-9249.347,512
6.302734,-4702.71,-9248.988,512
6.304688,-4707.254,-9226.633,512
6.306641,-4702.646,-9248.594,512
6.308594,-4677.18,-9237.069,512
6.310547,-4680.536,-9240.761,512
6.3125,-4682.779,-9251.854,512
6.314453,-4700.273,-9244.013,512
6.316406,-4707.984,-9253.124,512
6.318359,-4685.543,-9241.849,512
6.320312,-4696.997,-9260.756,512
6.322266,-4694.896,-9273.365,512
6.324219,-4679.01,-9288.791,512
6.326172,-4684.524,-9295.279,512
6.328125,-4673.851,-9324.46,512
6.330078,-4675.908,-9306.874,512
6.332031,-4686.925,-9253.713,512
6.333984,-4700.289,-9270.184,512
6.335938,-4686.105,-9272.73,512
6.337891,-4692.258,-9245.261,512
6.339844,-4677.847,-9270.86,512
6.341797,-4672.834,-9266.614,512
6.34375,-4692.406,-9244.056,512
6.345703,-4693.625,-9253.722,512
6.347656,-4687.131,-9262.703,512
6.349609,-4672.805,-9268.258,512
6.351562,-4680.611,-9254.06,512
6.353516,-4680.158,-9224.729,512
6.355469,-4672.811,-9239.911,512
6.357422,-4679.614,-9311.132,512
6.359375,-4675.936,-9282.089,512
6.361328,-4675.607,-9289.45,512
6.363281,-4683.432,-9227.519,512
6.365234,-4692.091,-9183.861,512
6.367188,-4683.919,-9222.228,512
6.369141,-4695.002,-9266.356,512
6.371094,-4703.355,-9263.898,512
6.373047,-4701.661,-9214.403,512
6.375,-4692.708,-9261.52,512
6.376953,-4700.777,-9279.612,512
6.378906,-4699.73,-9258.25,512
6.380859,-4704.133,-9256.225,512
6.382812,-4694.513,-9236.99,512
6.384766,-4688.525,-9243.65,512
6.386719,-4692.804,-9238.403,512
6.388672,-4703.594,-9222.578,512
6.390625,-4700.411,-9236.177,512
6.392578,-4693.13,-9251.816,512
6.394531,-4693.379,-9247.045,512
6.396484,-4685.982,-9237.692,512
6.398438,-4677.187,-9249.764,512
6.400391,-4689.169,-9260.48,512
6.402344,-4685.497,-9237.706,512
6.404297,-4690.641,-9231.75,512
6.40625,-4681.235,-9237.703,512
6.408203,-4686.932,-9227.847,512
6.410156,-4685.762,-9226.224,512
6.412109,-4678.177,-9241.195,512
6.414062,-4684.423,-9259.043,512
6.416016,-4690.003,-9242.826,512
6.417969,-4683.939,-9203.437,512
6.419922,-4688.635,-9211.637,512
6.421875,-4673.164,-9214.307,512
6.423828,-4682.117,-9218.22,512
6.425781,-4677.48,-9234.748,512
6.427734,-4682.928,-9255.662,512
6.429688,-4687.213,-9231.748,512
6.431641,-4679.667,-9229.371,512
6.433594,-4681.943,-9220,512
6.435547,-4666.582,-9213.157,512
6.4375,-4665.821,-9215.927,512
6.439453,-4663.928,-9212.176,512
6.441406,-4679.704,-9209.61,512
6.443359,-4683.864,-9194.907,512
6.445312,-4666.217,-9234.103,512
6.447266,-4656.966,-9241.29,512
6.449219,-4633.79,-9192.205,512
6.451172,-4612.222,-9222.014,512
6.453125,-4598.962,-9267.825,512
6.455078,-4577.036,-9278.959,512
6.457031,-4563.921,-9285.458,512
6.458984,-4588.731,-9296.604,512
6.460938,-4592.484,-9267.255,512
6.462891,-4597.313,-9295.726,512
6.464844,-4594.138,-9305.799,512
6.466797,-4586.113,-9316.173,512
6.46875,-4611.299,-9299.753,512
6.470703,-4645.2,-9294.112,512
6.472656,-4666.659,-9295.328,512
6.474609,-4673.907,-9305.438,512
6.476562,-4691.103,-9318.019,512
6.478516,-4700.423,-9331.931,512
6.480469,-4698.303,-9308.752,512
6.482422,-4702.241,-9275.104,512
6.484375,-4698.633,-9281.461,512
6.486328,-4723.198,-9286.082,512
6.488281,-4752.899,-9274.716,512
6.490234,-4779.548,-9233.917,512
6.492188,-4780.006,-9205.048,512
6.494141,-4768.172,-9210.459,512
6.496094,-4768.287,-9209.257,512
6.498047,-4758.243,-9225.08,512
6.5,-4747.359,-9218.609,512
6.501953,-4731.64,-9262.623,512
6.503906,-4701.303,-9302.026,512
6.505859,-4668.819,-9294.898,512
6.507812,-4662.66,-9288.587,512
6.509766,-4678.865,-9228.025,512
6.511719,-4684.255,-9179.174,512
6.513672,-4684.701,-9183.358,512
6.515625,-4695.87,-9183.725,512
6.517578,-4686.17,-9193.839,512
6.519531,-4670.043,-9193.95,512
6.521484,-4670.197,-9215.434,512
6.523438,-4665.829,-9231.255,512
6.525391,-4657.771,-9240.101,512
6.527344,-4672.375,-9262.329,512
6.529297,-4674.977,-9252.435,512
6.53125,-4659.945,-9230.224,512
6.533203,-4666.024,-9221.009,512
6.535156,-4667.009,-9215.272,512
6.537109,-4674.191,-9226.734,512
6.539062,-4669.944,-9244.476,512
6.541016,-4673.223,-9236.652,512
6.542969,-4661.24,-9223.749,512
6.544922,-4671.556,-9240.616,512
6.546875,-4682.166,-9239.174,512
6.548828,-4662.553,-9230.884,512
6.550781,-4643.736,-9208.431,512
6.552734,-4652.665,-9214.264,512
6.554688,-4654.475,-9221.141,512
6.556641,-4663.344,-9229.861,512
6.558594,-4665.026,-9239.921,512
6.560547,-4658.131,-9250.245,512
6.5625,-4663.188,-9236.539,512
6.564453,-4654.463,-9259.986,512
6.566406,-4667.828,-9236.097,512
6.568359,-4666.26,-9226.411,512
6.570312,-4643.973,-9244.876,512
6.572266,-4656.472,-9230.66,512
6.574219,-4651.608,-9248.561,512
6.576172,-4655.374,-9285.303,512
6.578125,-4659.124,-9287.971,512
6.580078,-4654.993,-9254.476,512
6.582031,-4658.195,-9242.889,512
6.583984,-4657.808,-9217.74,512
6.585938,-4657.569,-9226.864,512
6.587891,-4651.546,-9257.929,512
6.589844,-4654.231,-9243.912,512
6.591797,-4672.104,-9255.565,512
6.59375,-4668.821,-9258.902,512
6.595703,-4677.544,-9251.094,512
6.597656,-4655.612,-9247.107,512
6.599609,-4656.713,-9223.111,512
6.601562,-4669.545,-9236.535,512
6.603516,-4661.982,-9242.084,512
6.605469,-4645.197,-9230.794,512
6.607422,-4641.684,-9282.15,512
6.609375,-4648.817,-9281.312,512
6.611328,-4661.188,-9265.673,512
6.613281,-4644.463,-9265.795,512
6.615234,-4651.811,-9226.643,512
6.617188,-4639.5,-9231.822,512
6.619141,-4635.214,-9249.412,512
6.621094,-4638.85,-9240.124,512
6.623047,-4645.245,-9245.448,512
6.625,-4648.688,-9241.312,512
6.626953,-4640.456,-9239.543,512
6.628906,-4632.13,-9259.78,512
6.630859,-4636.708,-9263.82,512
6.632812,-4626.715,-9242.503,512
6.634766,-4621.862,-9254.19,512
6.636719,-4631.356,-9246.011,512
6.638672,-4620.034,-9255.813,512
6.640625,-4612.942,-9261.022,512
6.642578,-4618.714,-9294.631,512
6.644531,-4599.223,-9287.039,512
6.646484,-4580.777,-9266.391,512
6.648438,-4608.538,-9229.442,512
6.650391,-4603.843,-9222.688,512
6.652344,-4594.988,-9241.31,512
6.654297,-4595.75,-9211.996,512
6.65625,-4589.069,-9237.28,512
6.658203,-4585.098,-9244.364,512
6.660156,-4576.521,-9267.101,512
6.662109,-4576.132,-9295.387,512
6.664062,-4571.201,-9265.603,512
6.666016,-4564.397,-9263.532,512
6.667969,-4567.104,-9260.873,512
6.669922,-4568.29,-9241.114,512
6.671875,-4549.069,-9242.922,512
6.673828,-4548.582,-9254.485,512
6.675781,-4556.318,-9249.727,512
6.677734,-4555.723,-9263.209,512
6.679688,-4565.06,-9270.331,512
6.681641,-4551.025,-9272.365,512
6.683594,-4540.817,-9317.64,512
6.685547,-4548.831,-9337.938,512
6.6875,-4554.779,-9321.644,512
6.689453,-4549.434,-9266.599,512
6.691406,-4554.787,-9242.272,512
6.693359,-4562.753,-9273.508,512
6.695312,-4546.081,-9257.59,512
6.697266,-4547.717,-9260.119,512
6.699219,-4547.449,-9273.654,512
6.701172,-4546.525,-9280.792,512
6.703125,-4538.848,-9267.937,512
6.705078,-4542.5,-9275.536,512
6.707031,-4556.493,-9284.262,512
6.708984,-4550.604,-9307.471,512
6.710938,-4545.189,-9315.33,512
6.712891,-4551.6,-9308.179,512
6.714844,-4557.989,-9264.197,512
6.716797,-4570.86,-9249.034,512
6.71875,-4575.231,-9269.143,512
6.720703,-4563.779,-9259.505,512
6.722656,-4566.976,-9266.147,512
6.724609,-4567.418,-9270.094,512
6.726562,-4600.513,-9283.869,512
6.728516,-4595.619,-9274.554,512
6.730469,-4596.441,-9250.828,512
6.732422,-4599.106,-9261.755,512
6.734375,-4604.793,-9254.72,512
6.736328,-4617.769,-9262.073,512
6.738281,-4610.283,-9236.804,512
6.740234,-4620.96,-9245.829,512
6.742188,-4639.132,-9241.777,512
6.744141,-4651.012,-9232.208,512
6.746094,-4646.688,-9248.791,512
6.748047,-4658.096,-9247.069,512
6.75,-4647.1,-9249.799,512
6.751953,-4635.249,-9213.335,512
6.753906,-4636.02,-9229.577,512
6.755859,-4652.027,-9252.779,512
6.757812,-4649.107,-9253.506,512
6.759766,-4651.362,-9251.579,512
6.761719,-4656.642,-9251.23,512
6.763672,-4664.172,-9249.861,512
6.765625,-4668.697,-9209.469,512
6.767578,-4661.036,-9212.827,512
6.769531,-4663.747,-9217.153,512
6.771484,-4667.309,-9202.535,512
6.773438,-4667.521,-9206.18,512
6.775391,-4657.26,-9211.143,512
6.777344,-4665.149,-9228.771,512
6.779297,-4667.742,-9246.467,512
6.78125,-4665.565,-9219.221,512
6.783203,-4673.481,-9236.982,512
6.785156,-4667.603,-9224.925,512
6.787109,-4660.783,-9229.258,512
6.789062,-4661.766,-9247.989,512
6.791016,-4669.948,-9258.974,512
6.792969,-4674.957,-9276.332,512
6.794922,-4671.361,-9263.308,512
6.796875,-4675.246,-9259.115,512
6.798828,-4679.723,-9268.622,512
6.800781,-4675.797,-9255.104,512
6.802734,-4693.655,-9271.895,512
6.804688,-4693.996,-9210.909,512
6.806641,-4699.595,-9209.485,512
6.808594,-4710.09,-9260.227,512
6.810547,-4691.381,-9237.308,512
6.8125,-4683.281,-9248.638,512
6.814453,-4684.009,-9265.303,512
6.816406,-4679.355,-9263.604,512
6.818359,-4694.173,-9254.595,512
6.820312,-4693.384,-9241.959,512
6.822266,-4689.326,-9263.032,512
6.824219,-4689.472,-9232.075,512
6.826172,-4692.117,-9211.081,512
6.828125,-4681.417,-9229.229,512
6.830078,-4683.642,-9222.354,512
6.832031,-4683.747,-9252.309,512
6.833984,-4681.728,-9241.351,512
6.835938,-4687.81,-9228.069,512
6.837891,-4681.385,-9228.067,512
6.839844,-4681.305,-9239.11,512
6.841797,-4681.238,-9254.616,512
6.84375,-4674.772,-9262.8,512
6.845703,-4679.026,-9264.97,512
6.847656,-4671.738,-9243.402,512
6.849609,-4668.952,-9230.884,512
6.851562,-4676.228,-9222.689,512
6.853516,-4670.271,-9213.203,512
6.855469,-4676.015,-9217.661,512
6.857422,-4680.829,-9226.096,512
6.859375,-4676.865,-9233.942,512
6.861328,-4669.329,-9238.803,512
6.863281,-4674.214,-9242.412,512
6.865234,-4660.389,-9246.3,512
6.867188,-4656.682,-9255.866,512
6.869141,-4675.815,-9276.173,512
6.871094,-4680.502,-9226.841,512
6.873047,-4675.04,-9250.398,512
6.875,-4659.318,-9271.945,512
6.876953,-4665.284,-9269.595,512
6.878906,-4668.176,-9280.104,512
6.880859,-4673.461,-9242.241,512
6.882812,-4688.606,-9199.088,512
6.884766,-4677.875,-9242.72,512
6.886719,-4672.395,-9202.057,512
6.888672,-4683.249,-9199.413,512
6.890625,-4672.943,-9246.855,512
6.892578,-4685.589,-9230.346,512
6.894531,-4667.217,-9220.789,512
6.896484,-4665.489,-9264.913,512
6.898438,-4674.524,-9274.861,512
6.900391,-4671.942,-9224.106,512
6.902344,-4685.309,-9251.195,512
6.904297,-4679.389,-9246.212,512
6.90625,-4676.19,-9258.519,512
6.908203,-4664.927,-9251.094,512
6.910156,-4672.434,-9220.979,512
6.912109,-4683.816,-9226.151,512
6.914062,-4678.56,-9233.181,512
6.916016,-4694.055,-9239.349,512
6.917969,-4702.531,-9241.786,512
6.919922,-4684.835,-9239.956,512
6.921875,-4688.586,-9260.22,512
6.923828,-4692.367,-9267.07,512
6.925781,-4690.266,-9264.663,512
6.927734,-4694.351,-9289.791,512
6.929688,-4680.65,-9282.952,512
6.931641,-4668.438,-9279.248,512
6.933594,-4688.339,-9257.284,512
6.935547,-4692.434,-9232.355,512
6.9375,-4688.671,-9231.132,512
6.939453,-4692.41,-9237.56,512
6.941406,-4692.416,-9246.261,512
6.943359,-4684.759,-9265.062,512
6.945312,-4682.572,-9258.906,512
6.947266,-4677.617,-9262.333,512
6.949219,-4683.966,-9273.003,512
6.951172,-4698.039,-9251.603,512
6.953125,-4689.622,-9280.034,512
6.955078,-4672.462,-9264.014,512
6.957031,-4693.094,-9265.741,512
6.958984,-4692.772,-9257.521,512
6.960938,-4699.207,-9237.73,512
6.962891,-4691.964,-9272.875,512
6.964844,-4690.399,-9263.141,512
6.966797,-4691.992,-9247.805,512
6.96875,-4670.682,-9243.839,512
6.970703,-4688.487,-9238.761,512
6.972656,-4689.671,-9229.364,512
6.974609,-4687.325,-9255.858,512
6.976562,-4684.516,-9260.228,512
6.978516,-4682.828,-9270.373,512
6.980469,-4687.986,-9240.19,512
6.982422,-4686.035,-9209.854,512
6.984375,-4687.444,-9229.85,512
6.986328,-4678.672,-9236.72,512
6.988281,-4674.209,-9245.555,512
6.990234,-4669.225,-9247.295,512
6.992188,-4667.185,-9258.215,512
6.994141,-4680.736,-9273.724,512
6.996094,-4666.949,-9265.113,512
6.998047,-4672.599,-9248.811,512
7,-4687.599,-9245.598,512
7.001953,-4678.36,-9219.124,512
7.003906,-4682.857,-9221.496,512
7.005859,-4687.148,-9238.577,512
7.007812,-4695.387,-9253.273,512
7.009766,-4693.427,-9261.709,512
7.011719,-4664.691,-9277.856,512
7.013672,-4664.689,-9322.394,512
7.015625,-4678.066,-9259.854,512
7.017578,-4679.425,-9221.137,512
7.019531,-4677.55,-9197.651,512
7.021484,-4679.759,-9234.547,512
7.023438,-4689.658,-9233.744,512
7.025391,-4674.289,-9240.814,512
7.027344,-4675.833,-9262.653,512
7.029297,-4678.145,-9254.949,512
7.03125,-4675.691,-9256.069,512
7.033203,-4685.441,-9251.365,512
7.035156,-4694.345,-9253.243,512
7.037109,-4685.117,-9251.302,512
7.039062,-4688.261,-9245.058,512
7.041016,-4685.915,-9260.655,512
7.042969,-4688.284,-9265.192,512
7.044922,-4676.697,-9240.877,512
7.046875,-4685.268,-9264.214,512
7.048828,-4668.358,-9287.608,512
7.050781,-4666.104,-9297.354,512
7.052734,-4676.336,-9295.96,512
7.054688,-4680.625,-9310.099,512
7.056641,-4685.775,-9249.528,512
7.058594,-4683.894,-9238.423,512
7.060547,-4700.806,-9263.459,512
7.0625,-4707.807,-9248.008,512
7.064453,-4709.381,-9239.068,512
7.066406,-4692.349,-9229.836,512
7.068359,-4691.665,-9246.997,512
7.070312,-4698.973,-9254.65,512
7.072266,-4697.275,-9255.069,512
7.074219,-4693.25,-9280.328,512
7.076172,-4678.595,-9288.43,512
7.078125,-4693.187,-9283.927,512
7.080078,-4671.248,-9274.756,512
7.082031,-4671.689,-9280.429,512
7.083984,-4668.708,-9279.458,512
7.085938,-4676.517,-9271.916,512
7.087891,-4674.344,-9268.958,512
7.089844,-4694.765,-9238.037,512
7.091797,-4699.297,-9233.762,512
7.09375,-4700.572,-9255.953,512
7.095703,-4680.758,-9266.307,512
7.097656,-4688.792,-9249.032,512
7.099609,-4710.153,-9238.748,512
7.101562,-4686.817,-9233.044,512
7.103516,-4676.165,-9220.232,512
7.105469,-4694.454,-9240.121,512
7.107422,-4690.736,-9248.925,512
7.109375,-4687.588,-9251.877,512
7.111328,-4682.943,-9267.252,512
7.113281,-4693.976,-9251.362,512
7.115234,-4688.011,-9254.165,512
7.117188,-4676.72,-9271.102,512
7.119141,-4681.75,-9256.535,512
7.121094,-4688.813,-9271.843,512
7.123047,-4690.977,-9261.746,512
7.125,-4676.606,-9293.949,512
7.126953,-4684.757,-9283.586,512
7.128906,-4686.906,-9276.8,512
7.130859,-4672.338,-9295.083,512
7.132812,-4675.727,-9283.855,512
7.134766,-4694.182,-9259.486,512
7.136719,-4677.233,-9257.683,512
7.138672,-4677.527,-9241.644,512
7.140625,-4688.557,-9226.208,512
7.142578,-4682.581,-9257.739,512
7.144531,-4679.917,-9266.988,512
