timestamp,exg1,exg2,srate
0,-16538.59,-19921.54,512
0.001953125,-16547.78,-19928.04,512
0.00390625,-16531.09,-19916.05,512
0.005859375,-16533.72,-19920.86,512
0.0078125,-16536.46,-19924.79,512
0.009765625,-16531.12,-19923.58,512
0.01171875,-16541.4,-19934.71,512
0.01367188,-16537.19,-19930.34,512
0.015625,-16530.65,-19930.62,512
0.01757812,-16533.67,-19933.96,512
0.01953125,-16531.27,-19932.53,512
0.02148438,-16523.82,-19919.77,512
0.0234375,-16527.39,-19927.33,512
0.02539062,-16524.19,-19924.22,512
0.02734375,-16522.45,-19923.14,512
0.02929688,-16528.69,-19932.6,512
0.03125,-16519.62,-19922.63,512
0.03320312,-16517.87,-19918.39,512
0.03515625,-16525.21,-19923.66,512
0.03710938,-16527.88,-19923.97,512
0.0390625,-16526.59,-19930.44,512
0.04101562,-16525.57,-19940.62,512
0.04296875,-16524.95,-19941.08,512
0.04492188,-16521.55,-19939.83,512
0.046875,-16524.31,-19944.98,512
0.04882812,-16517.58,-19933.32,512
0.05078125,-16523.7,-19939.35,512
0.05273438,-16535.84,-19953.4,512
0.0546875,-16521.78,-19942.37,512
0.05664062,-16514.76,-19938.85,512
0.05859375,-16521.47,-19949.04,512
0.06054688,-16514.6,-19948.44,512
0.0625,-16514.55,-19948.69,512
0.06445312,-16505.82,-19939.37,512
0.06640625,-16508.55,-19942.2,512
0.06835938,-16519.29,-19952.44,512
0.0703125,-16517.61,-19959.54,512
0.07226562,-16505.27,-19954.09,512
0.07421875,-16493.47,-19944.78,512
0.07617188,-16501.94,-19950.61,512
0.078125,-16497.64,-19946.51,512
0.08007812,-16494.5,-19934.18,512
0.08203125,-16508.69,-19933.09,512
0.08398438,-16509.42,-19915.67,512
0.0859375,-16497.84,-19891.71,512
0.08789062,-16496.42,-19889.89,512
0.08984375,-16506.01,-19893.59,512
0.09179688,-16498.84,-19880.66,512
0.09375,-16491.05,-19877.32,512
0.09570312,-16497.34,-19881.87,512
0.09765625,-16498.7,-19867.33,512
0.09960938,-16517.2,-19870.98,512
0.1015625,-16527.09,-19867.67,512
0.1035156,-16515.65,-19841.03,512
0.1054688,-16521.53,-19830.46,512
0.1074219,-16530.61,-19843.92,512
0.109375,-16528.93,-19826.85,512
0.1113281,-16535.54,-19832.39,512
0.1132812,-16530.08,-19825.82,512
0.1152344,-16528.91,-19813.85,512
0.1171875,-16548.12,-19834.63,512
0.1191406,-16532.62,-19817.03,512
0.1210938,-16524.95,-19808.32,512
0.1230469,-16531.85,-19820.18,512
0.125,-16537.81,-19821.65,512
0.1269531,-16524.5,-19811.58,512
0.1289062,-16514.79,-19799.03,512
0.1308594,-16517.41,-19799.75,512
0.1328125,-16520.67,-19796.46,512
0.1347656,-16530.76,-19796.67,512
0.1367188,-16536.69,-19793.82,512
0.1386719,-16541.4,-19792.35,512
0.140625,-16537.13,-19792.94,512
0.1425781,-16538.96,-19791.9,512
0.1445312,-16532.66,-19783.45,512
0.1464844,-16529.86,-19779.07,512
0.1484375,-16539.87,-19780.51,512
0.1503906,-16531.06,-19772.47,512
0.1523438,-16538.82,-19769.5,512
0.1542969,-16539.22,-19768.26,512
0.15625,-16540.81,-19774.68,512
0.1582031,-16532.03,-19769.28,512
0.1601562,-16535.37,-19772.36,512
0.1621094,-16540.82,-19780.58,512
0.1640625,-16525.91,-19765.23,512
0.1660156,-16527.04,-19762.19,512
0.1679688,-16543.4,-19771.08,512
0.1699219,-16537.06,-19762.53,512
0.171875,-16543.63,-19764.35,512
0.1738281,-16529.29,-19749.99,512
0.1757812,-16520.24,-19738.83,512
0.1777344,-16535.98,-19752.33,512
0.1796875,-16533.71,-19751.64,512
0.1816406,-16528.91,-19747.5,512
0.1835938,-16536.69,-19752.09,512
0.1855469,-16535.52,-19748.55,512
0.1875,-16534.58,-19742.95,512
0.1894531,-16529.55,-19735.95,512
0.1914062,-16534.49,-19749.4,512
0.1933594,-16529.59,-19734.2,512
0.1953125,-16531.79,-19732.16,512
0.1972656,-16540.15,-19744.97,512
0.1992188,-16518.83,-19719.93,512
0.2011719,-16520.16,-19721.09,512
0.203125,-16526.48,-19733.21,512
0.2050781,-16520.78,-19732.86,512
0.2070312,-16519.09,-19732.58,512
0.2089844,-16516.3,-19733.48,512
0.2109375,-16516.31,-19731.24,512
0.2128906,-16519.7,-19725.77,512
0.2148438,-16513.68,-19720.08,512
0.2167969,-16515.84,-19724.97,512
0.21875,-16508.28,-19718.75,512
0.2207031,-16501.25,-19721.66,512
0.2226562,-16506.03,-19730.11,512
0.2246094,-16499.44,-19742.68,512
0.2265625,-16489.75,-19743.76,512
0.2285156,-16486.18,-19742.8,512
0.2304688,-16474.09,-19739.78,512
0.2324219,-16443.47,-19736.26,512
0.234375,-16422.44,-19739.25,512
0.2363281,-16403.17,-19738,512
0.2382812,-16381.19,-19749.39,512
0.2402344,-16369.7,-19763.51,512
0.2421875,-16356.78,-19762.56,512
0.2441406,-16390.65,-19767.58,512
0.2460938,-16433.26,-19750.81,512
0.2480469,-16455.71,-19747.05,512
0.25,-16490.42,-19741.1,512
0.2519531,-16522.29,-19727.16,512
0.2539062,-16549.61,-19717.89,512
0.2558594,-16580.58,-19715.19,512
0.2578125,-16614.16,-19714.54,512
0.2597656,-16641.38,-19713.67,512
0.2617188,-16670.14,-19726.03,512
0.2636719,-16672.54,-19723.5,512
0.265625,-16668.35,-19723.77,512
0.2675781,-16663.73,-19729.04,512
0.2695312,-16661.44,-19742.3,512
0.2714844,-16650.11,-19748.05,512
0.2734375,-16631.13,-19742.63,512
0.2753906,-16617.57,-19739.83,512
0.2773438,-16603.75,-19742.96,512
0.2792969,-16597.16,-19741.23,512
0.28125,-16596.49,-19740.48,512
0.2832031,-16586.1,-19734.62,512
0.2851562,-16578.73,-19727.77,512
0.2871094,-16572.46,-19732.88,512
0.2890625,-16559.92,-19747.86,512
0.2910156,-16545.55,-19744.45,512
0.2929688,-16530.73,-19745.21,512
0.2949219,-16529.02,-19750.26,512
0.296875,-16536.23,-19757.08,512
0.2988281,-16530.24,-19745.25,512
0.3007812,-16524.21,-19736.46,512
0.3027344,-16528.72,-19747.92,512
0.3046875,-16529.94,-19753.9,512
0.3066406,-16522.56,-19746.05,512
0.3085938,-16528.92,-19758.04,512
0.3105469,-16527.15,-19767.58,512
0.3125,-16515.72,-19757.91,512
0.3144531,-16521.63,-19765.22,512
0.3164062,-16525.81,-19771.8,512
0.3183594,-16528.25,-19773.09,512
0.3203125,-16522.44,-19763.03,512
0.3222656,-16515.36,-19765.71,512
0.3242188,-16511.09,-19772.74,512
0.3261719,-16511.17,-19776.32,512
0.328125,-16511.22,-19777.25,512
0.3300781,-16516.79,-19779.32,512
0.3320312,-16520.19,-19783.26,512
0.3339844,-16524.26,-19784.59,512
0.3359375,-16523.78,-19785.98,512
0.3378906,-16509.95,-19776.51,512
0.3398438,-16510.26,-19779.59,512
0.3417969,-16503.66,-19781.19,512
0.34375,-16508.08,-19785.05,512
0.3457031,-16505.76,-19784.69,512
0.3476562,-16506.38,-19785.94,512
0.3496094,-16517.95,-19794.92,512
0.3515625,-16514.65,-19790.44,512
0.3535156,-16508.28,-19788.15,512
0.3554688,-16513.74,-19794.61,512
0.3574219,-16508.54,-19789.69,512
0.359375,-16512.15,-19793.03,512
0.3613281,-16504.24,-19788.45,512
0.3632812,-16497.87,-19780.61,512
0.3652344,-16505.73,-19785.17,512
0.3671875,-16511.14,-19786.82,512
0.3691406,-16492.55,-19760.02,512
0.3710938,-16496.72,-19761.81,512
0.3730469,-16508.75,-19775.2,512
0.375,-16506.6,-19771.07,512
0.3769531,-16498.7,-19757.87,512
0.3789062,-16497.65,-19751.81,512
0.3808594,-16512.51,-19764.49,512
0.3828125,-16520.28,-19763.13,512
0.3847656,-16519.44,-19760.98,512
0.3867188,-16515.03,-19750.49,512
0.3886719,-16519.2,-19759.19,512
0.390625,-16514.74,-19759.32,512
0.3925781,-16509.21,-19750.78,512
0.3945312,-16501.53,-19746.75,512
0.3964844,-16500.16,-19737.5,512
0.3984375,-16505.22,-19735.25,512
0.4003906,-16508.27,-19736.02,512
0.4023438,-16498.16,-19728.52,512
0.4042969,-16495.4,-19728.4,512
0.40625,-16486.33,-19718.28,512
0.4082031,-16496.89,-19722.74,512
0.4101562,-16489.81,-19721.18,512
0.4121094,-16501.65,-19733.31,512
0.4140625,-16502.36,-19726.54,512
0.4160156,-16493.8,-19716.44,512
0.4179688,-16502.52,-19723.81,512
0.4199219,-16496.9,-19703.92,512
0.421875,-16486.28,-19694.14,512
0.4238281,-16495.13,-19708.36,512
0.4257812,-16490.93,-19704.42,512
0.4277344,-16493.8,-19695.92,512
0.4296875,-16494.25,-19692.09,512
0.4316406,-16492,-19691.08,512
0.4335938,-16497.53,-19699.63,512
0.4355469,-16498.81,-19695.72,512
0.4375,-16501.47,-19697.44,512
0.4394531,-16494.32,-19692.63,512
0.4414062,-16486.28,-19685.73,512
0.4433594,-16494.14,-19685.8,512
0.4453125,-16486.23,-19673.32,512
0.4472656,-16480.9,-19668.29,512
0.4492188,-16489.27,-19671.03,512
0.4511719,-16491.07,-19675.1,512
0.453125,-16487.11,-19672.79,512
0.4550781,-16473.03,-19660.14,512
0.4570312,-16481.84,-19670.57,512
0.4589844,-16482.53,-19674.31,512
0.4609375,-16485.54,-19674.32,512
0.4628906,-16480.91,-19662.72,512
0.4648438,-16482.55,-19655.24,512
0.4667969,-16485.57,-19656.81,512
0.46875,-16477.3,-19650.86,512
0.4707031,-16463.42,-19641.18,512
0.4726562,-16461.36,-19634.92,512
0.4746094,-16467.71,-19643.72,512
0.4765625,-16467.02,-19644.11,512
0.4785156,-16459.32,-19633.44,512
0.4804688,-16469.88,-19642.44,512
0.4824219,-16467.08,-19638.62,512
0.484375,-16441.31,-19608.36,512
0.4863281,-16446.61,-19621.83,512
0.4882812,-16428.36,-19613.57,512
0.4902344,-16435.68,-19622.9,512
0.4921875,-16445.61,-19631.72,512
0.4941406,-16432.37,-19628.16,512
0.4960938,-16450.5,-19645.57,512
0.4980469,-16455.13,-19650.01,512
0.5,-16451.37,-19647.69,512
0.5019531,-16440.86,-19641.95,512
0.5039062,-16450.59,-19655.87,512
0.5058594,-16439.34,-19648.17,512
0.5078125,-16450.64,-19653.77,512
0.5097656,-16448.26,-19650.56,512
0.5117188,-16435.52,-19644.66,512
0.5136719,-16443.28,-19649.66,512
0.515625,-16451.47,-19650.47,512
0.5175781,-16440.65,-19637.92,512
0.5195312,-16451.39,-19645.69,512
0.5214844,-16437.39,-19629.94,512
0.5234375,-16441.5,-19641.32,512
0.5253906,-16441.46,-19645.71,512
0.5273438,-16435.77,-19651.58,512
0.5292969,-16432.53,-19649.76,512
0.53125,-16438.82,-19654.61,512
0.5332031,-16430.73,-19640.38,512
0.5351562,-16431.58,-19632.03,512
0.5371094,-16430.14,-19630.85,512
0.5390625,-16434.91,-19639.36,512
0.5410156,-16427.65,-19630.6,512
0.5429688,-16427.68,-19621.86,512
0.5449219,-16439.85,-19632.12,512
0.546875,-16437.42,-19624.11,512
0.5488281,-16442.64,-19625.71,512
0.5507812,-16450.95,-19636.8,512
0.5527344,-16450.98,-19630.64,512
0.5546875,-16445.44,-19625.27,512
0.5566406,-16458.87,-19637.86,512
0.5585938,-16464.4,-19645.27,512
0.5605469,-16463.72,-19638.09,512
0.5625,-16464.48,-19632.55,512
0.5644531,-16467.78,-19636.66,512
0.5664062,-16481.15,-19649.84,512
0.5683594,-16477.53,-19640.2,512
0.5703125,-16474.05,-19631.98,512
0.5722656,-16488.84,-19639.43,512
0.5742188,-16484.81,-19647.41,512
0.5761719,-16481.27,-19648.19,512
0.578125,-16489.81,-19651.77,512
0.5800781,-16488.08,-19652.56,512
0.5820312,-16499.84,-19653.48,512
0.5839844,-16501.08,-19647.05,512
0.5859375,-16494.2,-19647.32,512
0.5878906,-16498.97,-19660.5,512
0.5898438,-16507.41,-19665.25,512
0.5917969,-16509.99,-19667.46,512
0.59375,-16505.76,-19667.35,512
0.5957031,-16500.6,-19669.26,512
0.5976562,-16509.33,-19674.91,512
0.5996094,-16515.48,-19674.43,512
0.6015625,-16524.54,-19680.54,512
0.6035156,-16517.01,-19678.05,512
0.6054688,-16511.75,-19676.29,512
0.6074219,-16510,-19674.51,512
0.609375,-16516.67,-19688.94,512
0.6113281,-16509.09,-19691.79,512
0.6132812,-16515.71,-19697.05,512
0.6152344,-16514.9,-19690.28,512
0.6171875,-16502.38,-19677.4,512
0.6191406,-16512.58,-19683.56,512
0.6210938,-16506.28,-19684.19,512
0.6230469,-16496.75,-19681.23,512
0.625,-16484.47,-19664.8,512
0.6269531,-16489.16,-19669.38,512
0.6289062,-16494.6,-19677.44,512
0.6308594,-16501.95,-19678.21,512
0.6328125,-16510.38,-19690.38,512
0.6347656,-16517.18,-19697.72,512
0.6367188,-16520.97,-19700.33,512
0.6386719,-16508.88,-19689.61,512
0.640625,-16511.38,-19697.15,512
0.6425781,-16525.84,-19716.22,512
0.6445312,-16527.27,-19720.3,512
0.6464844,-16534.29,-19727.81,512
0.6484375,-16533.7,-19717.33,512
0.6503906,-16537.55,-19729.86,512
0.6523438,-16532.59,-19728.74,512
0.6542969,-16525.76,-19720.32,512
0.65625,-16523.99,-19721.43,512
0.6582031,-16530.52,-19737.64,512
0.6601562,-16526.71,-19735.63,512
0.6621094,-16515.93,-19722.2,512
0.6640625,-16523.6,-19723.03,512
0.6660156,-16510.28,-19715.33,512
0.6679688,-16511.97,-19720.64,512
0.6699219,-16517.78,-19726.87,512
0.671875,-16500.06,-19706.06,512
0.6738281,-16499.04,-19718.53,512
0.6757812,-16497.45,-19722.65,512
0.6777344,-16503.47,-19721.6,512
0.6796875,-16499.73,-19723.7,512
0.6816406,-16500.41,-19727.1,512
0.6835938,-16507.3,-19725.07,512
0.6855469,-16510.08,-19727.88,512
0.6875,-16504.68,-19729.69,512
0.6894531,-16501,-19736.86,512
0.6914062,-16503.14,-19739.98,512
0.6933594,-16499.57,-19741.14,512
0.6953125,-16497.67,-19745.87,512
0.6972656,-16516.89,-19762.34,512
0.6992188,-16517.36,-19756.92,512
0.7011719,-16513.13,-19752.31,512
0.703125,-16506.19,-19745.31,512
0.7050781,-16509.69,-19741.66,512
0.7070312,-16509.01,-19753.48,512
0.7089844,-16503.36,-19761.35,512
0.7109375,-16494.31,-19749.37,512
0.7128906,-16508.96,-19755.68,512
0.7148438,-16510.05,-19754.87,512
0.7167969,-16507.33,-19746.02,512
0.71875,-16510.76,-19744.88,512
0.7207031,-16511.78,-19751.98,512
0.7226562,-16512.27,-19758.55,512
0.7246094,-16520.66,-19767.68,512
0.7265625,-16520.92,-19767.39,512
0.7285156,-16530.2,-19774.14,512
0.7304688,-16532.48,-19768.52,512
0.7324219,-16533.53,-19771.99,512
0.734375,-16530.4,-19772.56,512
0.7363281,-16525.88,-19771.84,512
0.7382812,-16526.52,-19777.72,512
0.7402344,-16529.55,-19777.66,512
0.7421875,-16516.46,-19769.98,512
0.7441406,-16520.59,-19768.64,512
0.7460938,-16531.09,-19774.87,512
0.7480469,-16527.84,-19770.86,512
0.75,-16526.32,-19769.74,512
0.7519531,-16525.17,-19767.74,512
0.7539062,-16525.08,-19768.74,512
0.7558594,-16516.49,-19767.15,512
0.7578125,-16520.21,-19770.63,512
0.7597656,-16523.69,-19764.91,512
0.7617188,-16526.89,-19761.61,512
0.7636719,-16523.96,-19761.58,512
0.765625,-16526.71,-19766.32,512
0.7675781,-16522.82,-19762.84,512
0.7695312,-16530.59,-19770.55,512
0.7714844,-16535.72,-19781.19,512
0.7734375,-16535.25,-19787.88,512
0.7753906,-16528.45,-19782.52,512
0.7773438,-16525.42,-19783.68,512
0.7792969,-16522.62,-19780.35,512
0.78125,-16518.67,-19774.22,512
0.7832031,-16520.07,-19775.29,512
0.7851562,-16515.85,-19768.49,512
0.7871094,-16513.33,-19762.23,512
0.7890625,-16507.92,-19758.57,512
0.7910156,-16513.52,-19769.3,512
0.7929688,-16522,-19779.83,512
0.7949219,-16528.36,-19790.37,512
0.796875,-16514.32,-19771.38,512
0.7988281,-16525.21,-19776.37,512
0.8007812,-16538.04,-19789.34,512
0.8027344,-16536.71,-19794.01,512
0.8046875,-16529.66,-19792.81,512
0.8066406,-16535.29,-19805.8,512
0.8085938,-16521.76,-19798.2,512
0.8105469,-16535.9,-19812.04,512
0.8125,-16515.18,-19791.18,512
0.8144531,-16519.24,-19786.99,512
0.8164062,-16525.04,-19786.68,512
0.8183594,-16521.99,-19785.92,512
0.8203125,-16532.85,-19782.7,512
0.8222656,-16538.72,-19788.82,512
0.8242188,-16529.43,-19783.14,512
0.8261719,-16520.61,-19770.53,512
0.828125,-16524.77,-19773,512
0.8300781,-16527.91,-19773.98,512
0.8320312,-16527.9,-19778.55,512
0.8339844,-16528.72,-19783.29,512
0.8359375,-16518.58,-19774.04,512
0.8378906,-16515.3,-19771.44,512
0.8398438,-16518.49,-19773.94,512
0.8417969,-16518.3,-19783.48,512
0.84375,-16516.19,-19783.9,512
0.8457031,-16509.89,-19782.01,512
0.8476562,-16516.04,-19793.75,512
0.8496094,-16517.88,-19798.22,512
0.8515625,-16520.42,-19798.96,512
0.8535156,-16521.07,-19796.3,512
0.8554688,-16528.69,-19801.01,512
0.8574219,-16525.34,-19801.6,512
0.859375,-16517.65,-19798.55,512
0.8613281,-16525.73,-19802.22,512
0.8632812,-16525.57,-19796.27,512
0.8652344,-16524.74,-19798.57,512
0.8671875,-16523.61,-19796.74,512
0.8691406,-16536.38,-19807.02,512
0.8710938,-16527.92,-19802.4,512
0.8730469,-16524.46,-19806.75,512
0.875,-16520.38,-19802.29,512
0.8769531,-16507.71,-19790.34,512
0.8789062,-16506.78,-19794.69,512
0.8808594,-16502.32,-19782.6,512
0.8828125,-16510.97,-19781.65,512
0.8847656,-16518.27,-19796.21,512
0.8867188,-16515.17,-19793.25,512
0.8886719,-16513.51,-19799.39,512
0.890625,-16512.64,-19797.34,512
0.8925781,-16516.38,-19801.12,512
0.8945312,-16506.12,-19792.22,512
0.8964844,-16504.13,-19787.33,512
0.8984375,-16503.98,-19785.63,512
0.9003906,-16505.57,-19780.86,512
0.9023438,-16515.12,-19796.46,512
0.9042969,-16513.49,-19798.77,512
0.90625,-16522.34,-19804.6,512
0.9082031,-16513.11,-19799.89,512
0.9101562,-16519.9,-19811.09,512
0.9121094,-16518.53,-19816.24,512
0.9140625,-16516.09,-19807.83,512
0.9160156,-16513.39,-19797.19,512
0.9179688,-16511.63,-19806.71,512
0.9199219,-16515.55,-19811.47,512
0.921875,-16510.84,-19804.99,512
0.9238281,-16501.74,-19801.22,512
0.9257812,-16507.93,-19809.01,512
0.9277344,-16519.67,-19825.09,512
0.9296875,-16524.04,-19833.37,512
0.9316406,-16518.37,-19822.85,512
0.9335938,-16520.9,-19825.23,512
0.9355469,-16524.5,-19823.57,512
0.9375,-16525.78,-19826.7,512
0.9394531,-16529.47,-19831.85,512
0.9414062,-16521.14,-19833.14,512
0.9433594,-16531.96,-19842.18,512
0.9453125,-16532.98,-19843,512
0.9472656,-16521.82,-19836.86,512
0.9492188,-16522.72,-19842.85,512
0.9511719,-16524.24,-19845.04,512
0.953125,-16522.97,-19840.28,512
0.9550781,-16521.27,-19840.71,512
0.9570312,-16516.06,-19840.79,512
0.9589844,-16509.24,-19837.81,512
0.9609375,-16500.28,-19829.08,512
0.9628906,-16506.36,-19825.46,512
0.9648438,-16505.53,-19818.5,512
0.9667969,-16505.25,-19822.32,512
0.96875,-16521.63,-19844.84,512
0.9707031,-16518.22,-19836.88,512
0.9726562,-16504.26,-19829.26,512
0.9746094,-16519.31,-19841.9,512
0.9765625,-16511.53,-19834.21,512
0.9785156,-16528.05,-19844.01,512
0.9804688,-16515.72,-19836.33,512
0.9824219,-16510.37,-19835.6,512
0.984375,-16531.75,-19853.74,512
0.9863281,-16518.05,-19839.29,512
0.9882812,-16512.64,-19836.25,512
0.9902344,-16509.01,-19836.34,512
0.9921875,-16502.6,-19839.12,512
0.9941406,-16514.61,-19847.45,512
0.9960938,-16517.23,-19841.22,512
0.9980469,-16511.63,-19835.71,512
1,-16514.88,-19838.27,512
1.001953,-16514.43,-19840.78,512
1.003906,-16509.66,-19839.99,512
1.005859,-16515.42,-19849.2,512
1.007812,-16516.57,-19852.4,512
1.009766,-16512.28,-19845.16,512
1.011719,-16507.8,-19837.01,512
1.013672,-16518.83,-19844.32,512
1.015625,-16529.86,-19845.92,512
1.017578,-16529.46,-19846.67,512
1.019531,-16531.21,-19853.78,512
1.021484,-16528.86,-19851.06,512
1.023438,-16522.66,-19845.84,512
1.025391,-16519.31,-19844.69,512
1.027344,-16533.78,-19861.02,512
1.029297,-16530.44,-19849.71,512
1.03125,-16545.45,-19861.13,512
1.033203,-16545.63,-19857.65,512
1.035156,-16541.58,-19854.03,512
1.037109,-16543.72,-19858.08,512
1.039062,-16537.47,-19850,512
1.041016,-16533.62,-19851.26,512
1.042969,-16538.03,-19847.34,512
1.044922,-16535.01,-19846.29,512
1.046875,-16531.54,-19840.07,512
1.048828,-16538.51,-19838.72,512
1.050781,-16529.26,-19834.08,512
1.052734,-16525.63,-19835.81,512
1.054688,-16518.18,-19829.87,512
1.056641,-16518.62,-19833.01,512
1.058594,-16520.42,-19834.94,512
1.060547,-16521.13,-19832.37,512
1.0625,-16519.61,-19831.71,512
1.064453,-16522.34,-19833.58,512
1.066406,-16512.6,-19832.28,512
1.068359,-16510.21,-19828.58,512
1.070312,-16513.67,-19825.37,512
1.072266,-16510.38,-19820.78,512
1.074219,-16498.54,-19808.63,512
1.076172,-16499.19,-19809.84,512
1.078125,-16496.76,-19814.31,512
1.080078,-16498.65,-19814.71,512
1.082031,-16509.43,-19817.87,512
1.083984,-16507.87,-19815.86,512
1.085938,-16497.13,-19810.9,512
1.087891,-16502.97,-19822.52,512
1.089844,-16504.71,-19827.81,512
1.091797,-16498.04,-19818.76,512
1.09375,-16502.04,-19817.66,512
1.095703,-16508.48,-19827.52,512
1.097656,-16507.56,-19826.96,512
1.099609,-16511.43,-19823.2,512
1.101562,-16509.88,-19823.99,512
1.103516,-16522.93,-19827.45,512
1.105469,-16517.36,-19826.9,512
1.107422,-16510.93,-19842.3,512
1.109375,-16508.38,-19855.29,512
1.111328,-16502.27,-19846.7,512
1.113281,-16504.52,-19849.14,512
1.115234,-16511.55,-19847.45,512
1.117188,-16511.34,-19854.34,512
1.119141,-16520.36,-19864.87,512
1.121094,-16518.41,-19860.71,512
1.123047,-16508.69,-19846.15,512
1.125,-16501.87,-19833.9,512
1.126953,-16504.14,-19834.17,512
1.128906,-16495.86,-19825.48,512
1.130859,-16491.55,-19812.51,512
1.132812,-16501.23,-19808.88,512
1.134766,-16493.85,-19796.03,512
1.136719,-16493.34,-19797.33,512
1.138672,-16495.13,-19798.79,512
1.140625,-16498.64,-19800.09,512
1.142578,-16496.89,-19799.93,512
1.144531,-16495.51,-19805.33,512
1.146484,-16501.54,-19806.87,512
1.148438,-16519.86,-19808.74,512
1.150391,-16511.67,-19791.05,512
1.152344,-16524.86,-19792.91,512
1.154297,-16532.24,-19795.85,512
1.15625,-16530,-19798.63,512
1.158203,-16531.09,-19802.01,512
1.160156,-16529.37,-19795.33,512
1.162109,-16531.3,-19795.22,512
1.164062,-16529.17,-19792.87,512
1.166016,-16533.34,-19784.24,512
1.167969,-16537.77,-19789.29,512
1.169922,-16534.49,-19788.65,512
1.171875,-16518.39,-19772.26,512
1.173828,-16513.29,-19772.33,512
1.175781,-16521.17,-19781.78,512
1.177734,-16517.3,-19774.52,512
1.179688,-16511.64,-19773.59,512
1.181641,-16518.6,-19777.82,512
1.183594,-16516,-19761.05,512
1.185547,-16521.28,-19768.23,512
1.1875,-16518.34,-19774.54,512
1.189453,-16533.59,-19795.54,512
1.191406,-16541.04,-19795.36,512
1.193359,-16530.96,-19781.77,512
1.195312,-16537.6,-19784.49,512
1.197266,-16532.63,-19775.68,512
1.199219,-16519.77,-19765.11,512
1.201172,-16544.42,-19781.3,512
1.203125,-16557.21,-19791.8,512
1.205078,-16539.97,-19783.33,512
1.207031,-16545.14,-19786.47,512
1.208984,-16548.15,-19782.96,512
1.210938,-16541.17,-19772.22,512
1.212891,-16529.3,-19762.88,512
1.214844,-16531.28,-19760.02,512
1.216797,-16541.48,-19765.89,512
1.21875,-16528.06,-19748.26,512
1.220703,-16529.83,-19750.74,512
1.222656,-16530.51,-19753.08,512
1.224609,-16527.19,-19750.33,512
1.226562,-16516.81,-19741.51,512
1.228516,-16517.34,-19742.39,512
1.230469,-16526,-19751.08,512
1.232422,-16523.89,-19742.69,512
1.234375,-16527.19,-19743.77,512
1.236328,-16539.39,-19748.03,512
1.238281,-16529.67,-19739.29,512
1.240234,-16525.94,-19741.59,512
1.242188,-16527.93,-19737.6,512
1.244141,-16522.78,-19740.05,512
1.246094,-16525.02,-19740.25,512
1.248047,-16527.6,-19746.9,512
1.25,-16528.58,-19743.83,512
1.251953,-16532.5,-19751.26,512
1.253906,-16521.87,-19740.48,512
1.255859,-16530.96,-19753.74,512
1.257812,-16516.07,-19759.62,512
1.259766,-16509.99,-19776.32,512
1.261719,-16519.13,-19794.14,512
1.263672,-16510.93,-19783.7,512
1.265625,-16509.6,-19786.97,512
1.267578,-16501.18,-19790.46,512
1.269531,-16483.71,-19773.37,512
1.271484,-16485.98,-19767.99,512
1.273438,-16494.73,-19780.44,512
1.275391,-16485.69,-19765.59,512
1.277344,-16466.19,-19750.88,512
1.279297,-16445.55,-19748.7,512
1.28125,-16422.34,-19734.24,512
1.283203,-16404.14,-19741.49,512
1.285156,-16387.46,-19759.97,512
1.287109,-16363.79,-19768.1,512
1.289062,-16360.15,-19772.4,512
1.291016,-16386.11,-19771.88,512
1.292969,-16427.4,-19763.05,512
1.294922,-16446.27,-19735.8,512
1.296875,-16467.01,-19729.14,512
1.298828,-16515.2,-19747.37,512
1.300781,-16551.38,-19735.52,512
1.302734,-16588.96,-19738.44,512
1.304688,-16619.73,-19735.18,512
1.306641,-16637.8,-19724.22,512
1.308594,-16663.23,-19720.67,512
1.310547,-16673.9,-19723.88,512
1.3125,-16682.36,-19729.59,512
1.314453,-16678.88,-19725.17,512
1.316406,-16678.29,-19727.19,512
1.318359,-16664.48,-19722.52,512
1.320312,-16654.96,-19726.5,512
1.322266,-16645.32,-19729.28,512
1.324219,-16628.32,-19735,512
1.326172,-16606.73,-19731.41,512
1.328125,-16588.95,-19722.74,512
1.330078,-16576.98,-19717.86,512
1.332031,-16579.53,-19725.13,512
1.333984,-16574.39,-19719.42,512
1.335938,-16567.68,-19720.61,512
1.337891,-16558.82,-19727.26,512
1.339844,-16553.44,-19730.32,512
1.341797,-16556.84,-19738.97,512
1.34375,-16539.79,-19729.23,512
1.345703,-16534.09,-19732.67,512
1.347656,-16535.54,-19737.31,512
1.349609,-16528.85,-19735.3,512
1.351562,-16516.83,-19730.37,512
1.353516,-16526.82,-19734.49,512
1.355469,-16524.02,-19739.27,512
1.357422,-16515.92,-19741.55,512
1.359375,-16520.61,-19749.62,512
1.361328,-16518.81,-19749.31,512
1.363281,-16523.6,-19758.51,512
1.365234,-16523.58,-19765.07,512
1.367188,-16509.66,-19752.44,512
1.369141,-16513.48,-19749.05,512
1.371094,-16523.87,-19761.13,512
1.373047,-16525.01,-19768.66,512
1.375,-16522.94,-19769.12,512
1.376953,-16512.12,-19760.04,512
1.378906,-16520.26,-19769.1,512
1.380859,-16536.3,-19779.89,512
1.382812,-16532.3,-19774.69,512
1.384766,-16530.93,-19777.52,512
1.386719,-16533.35,-19780.97,512
1.388672,-16516.76,-19767.89,512
1.390625,-16523.28,-19778.99,512
1.392578,-16532.5,-19789.71,512
1.394531,-16523.82,-19788.05,512
1.396484,-16522.7,-19787.72,512
1.398438,-16523.57,-19786,512
1.400391,-16518.84,-19784.88,512
1.402344,-16516.94,-19784.82,512
1.404297,-16516.96,-19794.09,512
1.40625,-16507.6,-19790.98,512
1.408203,-16507.27,-19782.23,512
1.410156,-16510.38,-19796.56,512
1.412109,-16513.83,-19803.38,512
1.414062,-16510.33,-19794.61,512
1.416016,-16502.53,-19783.37,512
1.417969,-16505.46,-19793.33,512
1.419922,-16505.46,-19788.34,512
1.421875,-16500.19,-19786.65,512
1.423828,-16509.08,-19801.23,512
1.425781,-16510.62,-19798.48,512
1.427734,-16506.69,-19797.35,512
1.429688,-16503.81,-19794.12,512
1.431641,-16509.36,-19800.21,512
1.433594,-16503.92,-19790.35,512
1.435547,-16506.75,-19784.54,512
1.4375,-16513.47,-19786.22,512
1.439453,-16512.08,-19792.45,512
1.441406,-16502.29,-19798.19,512
1.443359,-16505.35,-19802.57,512
1.445312,-16500.4,-19805.07,512
1.447266,-16501.4,-19803.04,512
1.449219,-16510.92,-19804.96,512
1.451172,-16500.8,-19797.07,512
1.453125,-16501.48,-19793,512
1.455078,-16500.27,-19796.94,512
1.457031,-16497,-19798.55,512
1.458984,-16502,-19809.33,512
1.460938,-16491.94,-19811.26,512
1.462891,-16499.55,-19807.08,512
1.464844,-16506.73,-19806.17,512
1.466797,-16503.62,-19808.35,512
1.46875,-16498.23,-19804.98,512
1.470703,-16497.82,-19810.17,512
1.472656,-16492.02,-19814.11,512
1.474609,-16491.25,-19810.87,512
1.476562,-16499.98,-19822.14,512
1.478516,-16492.46,-19812.98,512
1.480469,-16495.13,-19813.23,512
1.482422,-16503.57,-19826.22,512
1.484375,-16500,-19822.45,512
1.486328,-16497.85,-19810.55,512
1.488281,-16497.96,-19804.88,512
1.490234,-16494.81,-19814.56,512
1.492188,-16499.28,-19818.08,512
1.494141,-16497.4,-19814.4,512
1.496094,-16503.74,-19815.15,512
1.498047,-16508.05,-19822.51,512
1.5,-16503.94,-19833.87,512
1.501953,-16501.06,-19834.34,512
1.503906,-16479.38,-19820.03,512
1.505859,-16489.34,-19824.71,512
1.507812,-16484.78,-19817.85,512
1.509766,-16478.24,-19819,512
1.511719,-16484.41,-19822.06,512
1.513672,-16487.35,-19813.5,512
1.515625,-16488.64,-19808.53,512
1.517578,-16484.95,-19808.77,512
1.519531,-16481.15,-19809.35,512
1.521484,-16469.86,-19805.82,512
1.523438,-16469.67,-19815.29,512
1.525391,-16466.24,-19810.61,512
1.527344,-16462.43,-19803.93,512
1.529297,-16470.8,-19804.72,512
1.53125,-16463.14,-19790.63,512
1.533203,-16463.32,-19794.58,512
1.535156,-16465.24,-19804.27,512
1.537109,-16453.05,-19801.7,512
1.539062,-16450.81,-19799.82,512
1.541016,-16452.38,-19798.13,512
1.542969,-16449.81,-19804.98,512
1.544922,-16447.5,-19802.97,512
1.546875,-16438.88,-19793.24,512
1.548828,-16437.27,-19795.72,512
1.550781,-16441.77,-19800.02,512
1.552734,-16445.29,-19800.73,512
1.554688,-16427.4,-19791.18,512
1.556641,-16429.95,-19798.35,512
1.558594,-16434.79,-19814.2,512
1.560547,-16426.95,-19810.41,512
1.5625,-16428.99,-19813.9,512
1.564453,-16432.19,-19808.21,512
1.566406,-16427.76,-19795.83,512
1.568359,-16422.01,-19788.17,512
1.570312,-16431.93,-19787.83,512
1.572266,-16425.88,-19788.24,512
1.574219,-16420.81,-19784.06,512
1.576172,-16428.04,-19789.14,512
1.578125,-16434.81,-19788.71,512
1.580078,-16433.76,-19789.08,512
1.582031,-16430.85,-19790.56,512
1.583984,-16447.99,-19800.76,512
1.585938,-16445.2,-19794.34,512
1.587891,-16448.92,-19793.7,512
1.589844,-16450.53,-19790.89,512
1.591797,-16451.13,-19788.16,512
1.59375,-16454.41,-19788.71,512
1.595703,-16456.98,-19777.69,512
1.597656,-16459.15,-19767.9,512
1.599609,-16453.24,-19753.26,512
1.601562,-16462.08,-19757.66,512
1.603516,-16468.19,-19754.36,512
1.605469,-16467.12,-19745.04,512
1.607422,-16480.14,-19742.18,512
1.609375,-16475.58,-19723.26,512
1.611328,-16470.11,-19701.92,512
1.613281,-16474.05,-19696.27,512
1.615234,-16468.51,-19684.69,512
1.617188,-16485.42,-19696.46,512
1.619141,-16488.97,-19691.84,512
1.621094,-16484.2,-19676.23,512
1.623047,-16487.12,-19671.14,512
1.625,-16481.13,-19669.35,512
1.626953,-16491.89,-19678.58,512
1.628906,-16503.3,-19678.99,512
1.630859,-16486.93,-19651.88,512
1.632812,-16492.73,-19653.51,512
1.634766,-16498.07,-19657.37,512
1.636719,-16507.71,-19656.35,512
1.638672,-16498.72,-19651.42,512
1.640625,-16505.8,-19646,512
1.642578,-16501.44,-19634.72,512
1.644531,-16501.23,-19632.33,512
1.646484,-16505.6,-19634.62,512
1.648438,-16513.04,-19637.08,512
1.650391,-16525,-19636.27,512
1.652344,-16529.33,-19634.79,512
1.654297,-16534.86,-19638.2,512
1.65625,-16538.38,-19638.23,512
1.658203,-16539.11,-19637.4,512
1.660156,-16523.11,-19618.3,512
1.662109,-16509.19,-19610.88,512
1.664062,-16524.49,-19618.24,512
1.666016,-16531.11,-19615.56,512
1.667969,-16531.74,-19618.96,512
1.669922,-16524.72,-19610.72,512
1.671875,-16518.25,-19611.91,512
1.673828,-16524.23,-19614.44,512
1.675781,-16519.13,-19600.07,512
1.677734,-16519.34,-19594.42,512
1.679688,-16513.77,-19584.3,512
1.681641,-16524.18,-19582.38,512
1.683594,-16518.33,-19565.42,512
1.685547,-16512.85,-19554.18,512
1.6875,-16516.27,-19561.99,512
1.689453,-16511.75,-19551.09,512
1.691406,-16519.14,-19550.62,512
1.693359,-16517.36,-19545.91,512
1.695312,-16507.73,-19536.6,512
1.697266,-16515.22,-19541.85,512
1.699219,-16510.34,-19535.93,512
1.701172,-16505.18,-19532.01,512
1.703125,-16510.02,-19525.54,512
1.705078,-16510.24,-19517.11,512
1.707031,-16516.9,-19530.33,512
1.708984,-16522.25,-19532.04,512
1.710938,-16514.14,-19524.38,512
1.712891,-16513.21,-19522.69,512
1.714844,-16515.86,-19522.24,512
1.716797,-16505.3,-19505.13,512
1.71875,-16508.39,-19499.05,512
1.720703,-16505.35,-19502.93,512
1.722656,-16512.93,-19509.78,512
1.724609,-16502.26,-19497.74,512
1.726562,-16495.45,-19493.89,512
1.728516,-16502.44,-19496.02,512
1.730469,-16514.21,-19497.72,512
1.732422,-16500.92,-19473,512
1.734375,-16515.14,-19480.66,512
1.736328,-16523.7,-19497.82,512
1.738281,-16512.04,-19488.01,512
1.740234,-16518.46,-19488.42,512
1.742188,-16516.28,-19487.1,512
1.744141,-16511.94,-19483.57,512
1.746094,-16519.37,-19486.7,512
1.748047,-16525.29,-19474.09,512
1.75,-16524.99,-19469.79,512
1.751953,-16526.39,-19477.53,512
1.753906,-16537.41,-19488.79,512
1.755859,-16533.46,-19472.97,512
1.757812,-16534.33,-19470.13,512
1.759766,-16526.04,-19463.95,512
1.761719,-16526.12,-19468.01,512
1.763672,-16536.61,-19471.41,512
1.765625,-16534.06,-19471.52,512
1.767578,-16528.47,-19460.16,512
1.769531,-16533.59,-19461.81,512
1.771484,-16536.42,-19464.49,512
1.773438,-16531.62,-19468.98,512
1.775391,-16518.45,-19464.53,512
1.777344,-16528.48,-19470.23,512
1.779297,-16535.72,-19474.78,512
1.78125,-16524.65,-19462.35,512
1.783203,-16523.63,-19449.5,512
1.785156,-16524.37,-19449.28,512
1.787109,-16525.17,-19448.51,512
1.789062,-16513.96,-19446.17,512
1.791016,-16509.23,-19442.76,512
1.792969,-16504.6,-19430.12,512
1.794922,-16502.37,-19425.03,512
1.796875,-16503.31,-19424.9,512
1.798828,-16511.21,-19422.51,512
1.800781,-16512.91,-19419.74,512
1.802734,-16507.34,-19413.74,512
1.804688,-16498.18,-19406.69,512
1.806641,-16502.54,-19410.37,512
1.808594,-16504.57,-19411.16,512
1.810547,-16494.91,-19409.62,512
1.8125,-16495,-19403.97,512
1.814453,-16497.93,-19397.53,512
1.816406,-16502.12,-19402.69,512
1.818359,-16508.49,-19410.75,512
1.820312,-16502.12,-19407.57,512
1.822266,-16499.46,-19409.43,512
1.824219,-16514.18,-19421.77,512
1.826172,-16510.17,-19422.86,512
1.828125,-16503.66,-19423.55,512
1.830078,-16500.7,-19418.41,512
1.832031,-16515.69,-19431.29,512
1.833984,-16519.5,-19419.96,512
1.835938,-16530.14,-19422.29,512
1.837891,-16522.18,-19412.58,512
1.839844,-16533.61,-19427.75,512
1.841797,-16524.81,-19418.83,512
1.84375,-16529.9,-19426.67,512
1.845703,-16539.45,-19434.76,512
1.847656,-16538.59,-19430.85,512
1.849609,-16542.61,-19438,512
1.851562,-16523.56,-19423.43,512
1.853516,-16533.82,-19428.81,512
1.855469,-16538.74,-19417.81,512
1.857422,-16540.13,-19422.71,512
1.859375,-16536.78,-19422.35,512
1.861328,-16524.46,-19404.88,512
1.863281,-16515.19,-19400.6,512
1.865234,-16517.08,-19404.07,512
1.867188,-16525.58,-19411.51,512
1.869141,-16520.42,-19403.59,512
1.871094,-16512.48,-19400.6,512
1.873047,-16521.7,-19410.67,512
1.875,-16525.66,-19410.4,512
1.876953,-16528.33,-19414.14,512
1.878906,-16519.6,-19406.12,512
1.880859,-16522.3,-19411.69,512
1.882812,-16528.97,-19415.06,512
1.884766,-16517.02,-19402.58,512
1.886719,-16520.82,-19406.34,512
1.888672,-16516.09,-19412.65,512
1.890625,-16513.67,-19419.51,512
1.892578,-16521.18,-19426.92,512
1.894531,-16513.99,-19425.6,512
1.896484,-16513.66,-19415.61,512
1.898438,-16524,-19416.95,512
1.900391,-16507.53,-19394.84,512
1.902344,-16524.37,-19400.31,512
1.904297,-16524.11,-19415.74,512
1.90625,-16515.42,-19412.35,512
1.908203,-16509.62,-19406.18,512
1.910156,-16504.82,-19401.69,512
1.912109,-16514.37,-19411.7,512
1.914062,-16514.84,-19415.29,512
1.916016,-16517.28,-19407.79,512
1.917969,-16518.38,-19404.23,512
1.919922,-16513.2,-19403.87,512
1.921875,-16528.67,-19418.8,512
1.923828,-16516.98,-19415.86,512
1.925781,-16509.31,-19416.76,512
1.927734,-16513.17,-19407.6,512
1.929688,-16518.03,-19407.27,512
1.931641,-16518.02,-19416.52,512
1.933594,-16533.68,-19429.65,512
1.935547,-16543.24,-19432.01,512
1.9375,-16548.19,-19448.03,512
1.939453,-16529.41,-19442.89,512
1.941406,-16534.26,-19443.77,512
1.943359,-16537.96,-19448.31,512
1.945312,-16533.54,-19451.89,512
1.947266,-16529.54,-19442.19,512
1.949219,-16535.79,-19431.68,512
1.951172,-16544.35,-19452.85,512
1.953125,-16551.62,-19449.49,512
1.955078,-16540.68,-19438.47,512
1.957031,-16541.43,-19446.74,512
1.958984,-16526.85,-19425.09,512
1.960938,-16528.25,-19437.26,512
1.962891,-16543.41,-19442.03,512
1.964844,-16549.27,-19444.01,512
1.966797,-16540.25,-19432.75,512
1.96875,-16546.93,-19437.66,512
1.970703,-16551.67,-19449.16,512
1.972656,-16531.53,-19428.84,512
1.974609,-16524.7,-19426.03,512
1.976562,-16527.25,-19422.88,512
1.978516,-16522.97,-19420.39,512
1.980469,-16524.53,-19412.51,512
1.982422,-16524.68,-19413.98,512
1.984375,-16524.58,-19415.34,512
1.986328,-16525.27,-19418.06,512
1.988281,-16521.22,-19412.21,512
1.990234,-16517.08,-19415.35,512
1.992188,-16520.66,-19418.49,512
1.994141,-16506.72,-19403.97,512
1.996094,-16497.02,-19390.2,512
1.998047,-16518.24,-19406.07,512
2,-16525.57,-19417.22,512
2.001953,-16525.55,-19411.73,512
2.003906,-16517,-19407.05,512
2.005859,-16508.32,-19401.45,512
2.007812,-16511.08,-19404.39,512
2.009766,-16509.65,-19419.94,512
2.011719,-16523.34,-19432.38,512
2.013672,-16550.99,-19442.59,512
2.015625,-16547.62,-19431.81,512
2.017578,-16538.02,-19417.57,512
2.019531,-16532.69,-19420.81,512
2.021484,-16541.01,-19437.98,512
2.023438,-16536.1,-19435.48,512
2.025391,-16515.5,-19432.54,512
2.027344,-16521.47,-19434.45,512
2.029297,-16524.59,-19429.13,512
2.03125,-16529.04,-19430.73,512
2.033203,-16541.8,-19435.12,512
2.035156,-16538.05,-19424.83,512
2.037109,-16527.04,-19425.38,512
2.039062,-16524.17,-19420.2,512
2.041016,-16543.8,-19434.33,512
2.042969,-16531.54,-19432.55,512
2.044922,-16525.61,-19424.04,512
2.046875,-16522.45,-19429.31,512
2.048828,-16520.47,-19423.03,512
2.050781,-16516.29,-19414.33,512
2.052734,-16526.55,-19424.39,512
2.054688,-16533.33,-19422.06,512
2.056641,-16522.56,-19411.24,512
2.058594,-16519.99,-19407.71,512
2.060547,-16516.27,-19412.85,512
2.0625,-16516.98,-19422.93,512
2.064453,-16520.46,-19422.93,512
2.066406,-16523.16,-19408.36,512
2.068359,-16529.51,-19414.36,512
2.070312,-16517.71,-19412.13,512
2.072266,-16498.36,-19398.81,512
2.074219,-16504.22,-19403.9,512
2.076172,-16504.93,-19399.9,512
2.078125,-16494.29,-19400.02,512
2.080078,-16491.4,-19395.33,512
2.082031,-16493.77,-19396.79,512
2.083984,-16509.77,-19410.44,512
2.085938,-16494.52,-19399.9,512
2.087891,-16468.12,-19378.74,512
2.089844,-16489.8,-19394.9,512
2.091797,-16507.2,-19410.15,512
2.09375,-16508.42,-19404.74,512
2.095703,-16500.9,-19401.95,512
2.097656,-16504.12,-19419.29,512
2.099609,-16515.07,-19435.22,512
2.101562,-16514.46,-19420.8,512
2.103516,-16519.94,-19428.07,512
2.105469,-16529.8,-19444.23,512
2.107422,-16519.58,-19436.59,512
2.109375,-16508.65,-19428.11,512
2.111328,-16519.63,-19440.61,512
2.113281,-16511.81,-19447.53,512
2.115234,-16518.79,-19438.65,512
2.117188,-16516.4,-19439.74,512
2.119141,-16509.79,-19435.29,512
2.121094,-16522.01,-19434.73,512
2.123047,-16535.75,-19445.77,512
2.125,-16535.11,-19452.22,512
2.126953,-16537.71,-19449.78,512
2.128906,-16532.76,-19442.37,512
2.130859,-16530.9,-19448.34,512
2.132812,-16537.16,-19449.67,512
2.134766,-16528.68,-19441.47,512
2.136719,-16524.63,-19440.53,512
2.138672,-16536.39,-19445.28,512
2.140625,-16516.14,-19433.62,512
2.142578,-16522.36,-19438.5,512
2.144531,-16517.08,-19443.82,512
2.146484,-16498.37,-19433.51,512
2.148438,-16518.91,-19438.84,512
2.150391,-16519.08,-19442.36,512
2.152344,-16520.1,-19445.47,512
2.154297,-16507.12,-19435.95,512
2.15625,-16498,-19429.1,512
2.158203,-16496.74,-19439.65,512
2.160156,-16481.89,-19421.59,512
2.162109,-16481.58,-19427.25,512
2.164062,-16470.46,-19417.2,512
2.166016,-16480.36,-19414.9,512
2.167969,-16511.11,-19432.7,512
2.169922,-16518.54,-19448.91,512
2.171875,-16494.12,-19428.47,512
2.173828,-16481.45,-19414.28,512
2.175781,-16470.08,-19427.07,512
2.177734,-16487.73,-19439.26,512
2.179688,-16489.45,-19442.62,512
2.181641,-16480.21,-19435.56,512
2.183594,-16487.63,-19426.37,512
2.185547,-16491.28,-19426.4,512
2.1875,-16492.78,-19435.08,512
2.189453,-16471.6,-19435.73,512
2.191406,-16465.39,-19430.54,512
2.193359,-16488.54,-19431.64,512
2.195312,-16475.04,-19423.42,512
2.197266,-16487.42,-19432.19,512
2.199219,-16496.57,-19445.43,512
2.201172,-16496.47,-19447.23,512
2.203125,-16486.28,-19432.22,512
2.205078,-16495.46,-19420.74,512
2.207031,-16490.86,-19419.88,512
2.208984,-16479.9,-19397.75,512
2.210938,-16479.25,-19390.51,512
2.212891,-16489.9,-19390.21,512
2.214844,-16470.65,-19353.23,512
2.216797,-16489.6,-19354.86,512
2.21875,-16499.14,-19368.86,512
2.220703,-16487.18,-19352.14,512
2.222656,-16498.34,-19345.59,512
2.224609,-16509.74,-19352.56,512
2.226562,-16494.64,-19335.81,512
2.228516,-16510.42,-19337.49,512
2.230469,-16507.36,-19320.96,512
2.232422,-16498.4,-19300.74,512
2.234375,-16503.15,-19293.67,512
2.236328,-16499.71,-19283.11,512
2.238281,-16496.63,-19279.06,512
2.240234,-16488.89,-19272.24,512
2.242188,-16484.21,-19262.51,512
2.244141,-16497.23,-19267.86,512
2.246094,-16491.05,-19266.55,512
2.248047,-16496.17,-19258.45,512
2.25,-16524.09,-19275.07,512
2.251953,-16500.84,-19253.18,512
2.253906,-16501.2,-19241.41,512
2.255859,-16521.91,-19266.35,512
2.257812,-16518.66,-19257.4,512
2.259766,-16509.21,-19248.74,512
2.261719,-16493.83,-19242.46,512
2.263672,-16492.5,-19237.85,512
2.265625,-16505.43,-19234.8,512
2.267578,-16514.78,-19239.74,512
2.269531,-16499,-19227.99,512
2.271484,-16498.87,-19219.97,512
2.273438,-16501.73,-19225.15,512
2.275391,-16496.84,-19224.65,512
2.277344,-16492.66,-19226.54,512
2.279297,-16505.52,-19234.99,512
2.28125,-16500.26,-19227.27,512
2.283203,-16511.34,-19224.34,512
2.285156,-16524.43,-19241.63,512
2.287109,-16520.85,-19240.31,512
2.289062,-16517.65,-19232.31,512
2.291016,-16511.79,-19223.92,512
2.292969,-16538.12,-19241.91,512
2.294922,-16519,-19225.54,512
2.296875,-16506.73,-19230.76,512
2.298828,-16531.02,-19225.27,512
2.300781,-16526.63,-19223.39,512
2.302734,-16522.28,-19224.63,512
2.304688,-16528.13,-19211.21,512
2.306641,-16525.16,-19218.48,512
2.308594,-16523.39,-19224.89,512
2.310547,-16514.91,-19223.69,512
2.3125,-16519,-19231.1,512
2.314453,-16525.3,-19215.36,512
2.316406,-16513.85,-19187.09,512
2.318359,-16514.05,-19205.79,512
2.320312,-16515.19,-19214.11,512
2.322266,-16515.27,-19223.04,512
2.324219,-16511.14,-19224.67,512
2.326172,-16509.28,-19220.54,512
2.328125,-16498.03,-19223.4,512
2.330078,-16509.42,-19229.8,512
2.332031,-16506.36,-19225.55,512
2.333984,-16511.38,-19212.73,512
2.335938,-16532.41,-19221.79,512
2.337891,-16512.84,-19213.13,512
2.339844,-16502.68,-19211.83,512
2.341797,-16486.68,-19198.32,512
2.34375,-16479.26,-19192.2,512
2.345703,-16469.51,-19187.25,512
2.347656,-16468.63,-19202.37,512
2.349609,-16460.71,-19201.89,512
2.351562,-16442.56,-19191.47,512
2.353516,-16439.42,-19190.41,512
2.355469,-16432.94,-19188.94,512
2.357422,-16410.53,-19189.38,512
2.359375,-16383.97,-19174.57,512
2.361328,-16369.75,-19178.02,512
2.363281,-16349.16,-19195.86,512
2.365234,-16343.29,-19203.52,512
2.367188,-16314.92,-19208.49,512
2.369141,-16310.58,-19221.81,512
2.371094,-16314.48,-19231.65,512
2.373047,-16336.26,-19242.19,512
2.375,-16390.61,-19237.16,512
2.376953,-16420.29,-19239.3,512
2.378906,-16457.67,-19238.38,512
2.380859,-16506.38,-19237.05,512
2.382812,-16544.46,-19230.54,512
2.384766,-16583.51,-19228.73,512
2.386719,-16621.21,-19227.41,512
2.388672,-16633.98,-19212.93,512
2.390625,-16655.94,-19207.59,512
2.392578,-16673.78,-19212.15,512
2.394531,-16697.01,-19220.93,512
2.396484,-16685.35,-19225.9,512
2.398438,-16661.21,-19218.76,512
2.400391,-16646.8,-19203.89,512
2.402344,-16627.07,-19205.17,512
2.404297,-16622.02,-19202.13,512
2.40625,-16605.57,-19204.84,512
2.408203,-16567.87,-19200.78,512
2.410156,-16556.84,-19192.03,512
2.412109,-16564.65,-19194.25,512
2.414062,-16566.6,-19199.14,512
2.416016,-16557.93,-19209.31,512
2.417969,-16537.74,-19203.45,512
2.419922,-16533.52,-19204.49,512
2.421875,-16530.31,-19223.14,512
2.423828,-16525.1,-19229.24,512
2.425781,-16506.91,-19221.29,512
2.427734,-16486.67,-19213.41,512
2.429688,-16485.41,-19203.87,512
2.431641,-16496.5,-19218.74,512
2.433594,-16491.04,-19214.08,512
2.435547,-16484.51,-19209.82,512
2.4375,-16490.02,-19203.74,512
2.439453,-16481.19,-19204.85,512
2.441406,-16464.78,-19197.5,512
2.443359,-16484,-19214.14,512
2.445312,-16477.52,-19208.02,512
2.447266,-16481.82,-19206.28,512
2.449219,-16480.13,-19214.24,512
2.451172,-16465.42,-19200.43,512
2.453125,-16465.59,-19210.86,512
2.455078,-16475.21,-19212.73,512
2.457031,-16474.08,-19214.44,512
2.458984,-16491.85,-19222.08,512
2.460938,-16495.06,-19226.35,512
2.462891,-16498.4,-19242.7,512
2.464844,-16490.29,-19237.54,512
2.466797,-16495.91,-19237.38,512
2.46875,-16502.57,-19232.11,512
2.470703,-16510.46,-19247.89,512
2.472656,-16512.22,-19253.26,512
2.474609,-16511.22,-19239.93,512
2.476562,-16513.35,-19248.8,512
2.478516,-16516.67,-19244.56,512
2.480469,-16529.57,-19260.84,512
2.482422,-16516.44,-19255.18,512
2.484375,-16509.66,-19248.95,512
2.486328,-16513.39,-19257.03,512
2.488281,-16514.71,-19261.39,512
2.490234,-16510.07,-19258.43,512
2.492188,-16506.24,-19258.69,512
2.494141,-16514.97,-19262.1,512
2.496094,-16511.87,-19269.42,512
2.498047,-16491.74,-19242.89,512
2.5,-16478.73,-19236.21,512
2.501953,-16505.32,-19250.85,512
2.503906,-16503.71,-19242.72,512
2.505859,-16482.09,-19229.72,512
2.507812,-16486.65,-19243.61,512
2.509766,-16472.96,-19231.49,512
2.511719,-16492.26,-19247.85,512
2.513672,-16492.96,-19247.28,512
2.515625,-16491.4,-19242.39,512
2.517578,-16483.13,-19241.28,512
2.519531,-16475.14,-19240.39,512
2.521484,-16461.27,-19243.49,512
2.523438,-16442.1,-19240.29,512
2.525391,-16472.41,-19246.28,512
2.527344,-16469.77,-19249.19,512
2.529297,-16462.67,-19254.45,512
2.53125,-16487.03,-19265.74,512
2.533203,-16466.18,-19249.13,512
2.535156,-16463.21,-19248.87,512
2.537109,-16475.96,-19246.96,512
2.539062,-16458.21,-19238.2,512
2.541016,-16469.47,-19246.39,512
2.542969,-16455.42,-19240.9,512
2.544922,-16448.53,-19244.22,512
2.546875,-16440.23,-19227.89,512
2.548828,-16456.83,-19240.97,512
2.550781,-16500.98,-19264.06,512
2.552734,-16485.59,-19240.78,512
2.554688,-16486.98,-19260.84,512
2.556641,-16510.63,-19281.98,512
2.558594,-16499.24,-19267.97,512
2.560547,-16484.44,-19262.5,512
2.5625,-16498.67,-19265.8,512
2.564453,-16500.25,-19263.82,512
2.566406,-16505.16,-19274.99,512
2.568359,-16495.37,-19275.41,512
2.570312,-16498.08,-19264.4,512
2.572266,-16498.88,-19262.06,512
2.574219,-16481.48,-19255.03,512
2.576172,-16484.75,-19254.75,512
2.578125,-16489.93,-19275.08,512
2.580078,-16487.26,-19269.59,512
2.582031,-16479.98,-19261.76,512
2.583984,-16483.53,-19259.26,512
2.585938,-16489.59,-19260.25,512
2.587891,-16483.57,-19261.6,512
2.589844,-16467.29,-19255.19,512
2.591797,-16458.08,-19248.82,512
2.59375,-16455.07,-19242.06,512
2.595703,-16462.74,-19246.04,512
2.597656,-16438.44,-19210.14,512
2.599609,-16430.74,-19219.8,512
2.601562,-16447.49,-19239.69,512
2.603516,-16445.48,-19216.96,512
2.605469,-16424.3,-19216.64,512
2.607422,-16432.84,-19218.35,512
2.609375,-16432.97,-19218.43,512
2.611328,-16427.51,-19229.27,512
2.613281,-16422.26,-19237.49,512
2.615234,-16418.01,-19214.66,512
2.617188,-16402.16,-19194.79,512
2.619141,-16409.79,-19210.91,512
2.621094,-16413.39,-19214.59,512
2.623047,-16408.45,-19209.61,512
2.625,-16404.57,-19204.07,512
2.626953,-16419.26,-19227.22,512
2.628906,-16398.91,-19203.09,512
2.630859,-16394.38,-19216.09,512
2.632812,-16384.05,-19211.37,512
2.634766,-16399.97,-19214.78,512
2.636719,-16408.18,-19217.4,512
2.638672,-16417.21,-19224.72,512
2.640625,-16419.11,-19239.05,512
2.642578,-16418.22,-19231.12,512
2.644531,-16411.07,-19222.53,512
2.646484,-16419.79,-19236.22,512
2.648438,-16423.82,-19241.99,512
2.650391,-16430.92,-19256.46,512
2.652344,-16431.57,-19253.11,512
2.654297,-16425.47,-19248.17,512
2.65625,-16422.23,-19252.09,512
2.658203,-16423.54,-19250.51,512
2.660156,-16414.7,-19238.09,512
2.662109,-16407.02,-19223.86,512
2.664062,-16407.75,-19241.16,512
2.666016,-16430.69,-19245.08,512
2.667969,-16422.59,-19236.24,512
2.669922,-16448.09,-19283.16,512
2.671875,-16441.75,-19273.87,512
2.673828,-16438.37,-19268.63,512
2.675781,-16428.41,-19262.31,512
2.677734,-16422.2,-19256.05,512
2.679688,-16437.85,-19259.73,512
2.681641,-16433.32,-19259.84,512
2.683594,-16432.71,-19246.86,512
2.685547,-16445.05,-19242.38,512
2.6875,-16441.36,-19240.08,512
2.689453,-16443.7,-19251.49,512
2.691406,-16450.93,-19251.23,512
2.693359,-16435.42,-19242.35,512
2.695312,-16436.33,-19252.35,512
2.697266,-16443.01,-19247.57,512
2.699219,-16455.33,-19235.74,512
2.701172,-16454.96,-19240.64,512
2.703125,-16449.36,-19245.51,512
2.705078,-16455.38,-19245.94,512
2.707031,-16441.79,-19233.13,512
2.708984,-16442.79,-19233.04,512
2.710938,-16445.8,-19231.72,512
2.712891,-16449.12,-19242.84,512
2.714844,-16436.09,-19241,512
2.716797,-16448.35,-19240.95,512
2.71875,-16472.78,-19245.43,512
2.720703,-16457.05,-19235.41,512
2.722656,-16437.1,-19231.67,512
2.724609,-16449.2,-19227.69,512
2.726562,-16466.43,-19250.1,512
2.728516,-16464.15,-19257.93,512
2.730469,-16460.06,-19254.13,512
2.732422,-16472.74,-19262.71,512
2.734375,-16489.42,-19279.62,512
2.736328,-16490.82,-19277.23,512
2.738281,-16488.8,-19285.05,512
2.740234,-16491.99,-19283.65,512
2.742188,-16496.96,-19306.85,512
2.744141,-16489.39,-19302.84,512
2.746094,-16500.05,-19303.96,512
2.748047,-16498.54,-19309.77,512
2.75,-16493.29,-19295.38,512
2.751953,-16502,-19297.28,512
2.753906,-16491.83,-19293.12,512
2.755859,-16516.27,-19324.83,512
2.757812,-16509.68,-19324.07,512
2.759766,-16500.41,-19312.8,512
2.761719,-16515.61,-19322.56,512
2.763672,-16526.16,-19337.78,512
2.765625,-16516.42,-19328.26,512
2.767578,-16502.57,-19310.25,512
2.769531,-16528.67,-19317.69,512
2.771484,-16517.37,-19303.3,512
2.773438,-16497.79,-19310.11,512
2.775391,-16501.87,-19305.72,512
2.777344,-16505.43,-19311,512
2.779297,-16507.59,-19310.46,512
2.78125,-16503.46,-19317.5,512
2.783203,-16506.8,-19314.47,512
2.785156,-16508.98,-19316.47,512
2.787109,-16484.9,-19312.01,512
2.789062,-16495.81,-19321.65,512
2.791016,-16503.11,-19339.34,512
2.792969,-16488.74,-19325.13,512
2.794922,-16497.75,-19334.47,512
2.796875,-16483.73,-19322.13,512
2.798828,-16486.44,-19316.47,512
2.800781,-16501.17,-19323.99,512
2.802734,-16488.19,-19329.45,512
2.804688,-16468.88,-19307.91,512
2.806641,-16461.88,-19299.61,512
2.808594,-16460.53,-19311.76,512
2.810547,-16470.57,-19312.57,512
2.8125,-16486.71,-19320.49,512
2.814453,-16478.9,-19300.67,512
2.816406,-16484.71,-19293.35,512
2.818359,-16499.67,-19324.11,512
2.820312,-16472.94,-19313.14,512
2.822266,-16494.46,-19335.38,512
2.824219,-16506.05,-19329.75,512
2.826172,-16473.47,-19317.81,512
2.828125,-16488.86,-19319.47,512
2.830078,-16496.64,-19304.15,512
2.832031,-16508.29,-19315.97,512
2.833984,-16517.67,-19326.03,512
2.835938,-16528.1,-19349.92,512
2.837891,-16504.57,-19320.36,512
2.839844,-16501.6,-19316.78,512
2.841797,-16491.91,-19309.14,512
2.84375,-16494.31,-19311.05,512
2.845703,-16505.14,-19315.27,512
2.847656,-16495.88,-19309.91,512
2.849609,-16512.42,-19326.45,512
2.851562,-16507.78,-19312.06,512
2.853516,-16514.09,-19319.16,512
2.855469,-16501.07,-19314.43,512
2.857422,-16489.62,-19308.07,512
2.859375,-16508.78,-19319.99,512
2.861328,-16506.15,-19330.32,512
2.863281,-16496.95,-19317.03,512
2.865234,-16497.47,-19300.37,512
2.867188,-16487.91,-19298.39,512
2.869141,-16505.51,-19318.42,512
2.871094,-16493.77,-19306.67,512
2.873047,-16495.77,-19308.61,512
2.875,-16496.7,-19304.86,512
2.876953,-16483.81,-19292.49,512
2.878906,-16484.56,-19288.43,512
2.880859,-16501.5,-19309.48,512
2.882812,-16491.75,-19289.43,512
2.884766,-16473.21,-19264.99,512
2.886719,-16495.6,-19286.68,512
2.888672,-16483.92,-19270.72,512
2.890625,-16477.03,-19276.84,512
2.892578,-16493.03,-19298.89,512
2.894531,-16483.7,-19290.51,512
2.896484,-16485.64,-19289.7,512
2.898438,-16496.06,-19275.52,512
2.900391,-16491.12,-19268.56,512
2.902344,-16478.28,-19255.5,512
2.904297,-16473.84,-19253.46,512
2.90625,-16475.52,-19277.46,512
2.908203,-16487.53,-19284.7,512
2.910156,-16477.6,-19283.43,512
2.912109,-16472.03,-19276.88,512
2.914062,-16492.04,-19292.91,512
2.916016,-16498.5,-19276.3,512
2.917969,-16496.39,-19274.41,512
2.919922,-16488.6,-19280.25,512
2.921875,-16512.22,-19292.71,512
2.923828,-16493.63,-19274.07,512
2.925781,-16491.13,-19275.71,512
2.927734,-16505.18,-19288.21,512
2.929688,-16516.21,-19272.49,512
2.931641,-16503,-19244.96,512
2.933594,-16503.87,-19258.67,512
2.935547,-16505.79,-19263.82,512
2.9375,-16491.74,-19245.89,512
2.939453,-16497.34,-19251.03,512
2.941406,-16503.53,-19241.58,512
2.943359,-16488.38,-19232.01,512
2.945312,-16489.23,-19229.03,512
2.947266,-16493.44,-19235.94,512
2.949219,-16508.14,-19233.9,512
2.951172,-16514.46,-19240.74,512
2.953125,-16505.15,-19235.24,512
2.955078,-16503.05,-19222.94,512
2.957031,-16488.9,-19202.44,512
2.958984,-16491.73,-19221.15,512
2.960938,-16509.8,-19231.79,512
2.962891,-16496.4,-19224.52,512
2.964844,-16502.22,-19217.13,512
2.966797,-16474.91,-19190.8,512
2.96875,-16489.21,-19192.18,512
2.970703,-16483.16,-19172.75,512
2.972656,-16471.33,-19182.68,512
2.974609,-16507.92,-19221.93,512
2.976562,-16503.69,-19213.01,512
2.978516,-16511.27,-19218.69,512
2.980469,-16501.14,-19228.3,512
2.982422,-16507.72,-19226.65,512
2.984375,-16499.28,-19215.02,512
2.986328,-16494.14,-19195.9,512
2.988281,-16501.12,-19205.66,512
2.990234,-16501.06,-19228.91,512
2.992188,-16490.66,-19216.66,512
2.994141,-16483.37,-19206.18,512
2.996094,-16491.26,-19210.35,512
2.998047,-16482.69,-19199.73,512
3,-16476.84,-19194.9,512
3.001953,-16501.82,-19212.39,512
3.003906,-16502.16,-19214.7,512
3.005859,-16511.7,-19221.24,512
3.007812,-16500.26,-19207.9,512
3.009766,-16487.31,-19205.17,512
3.011719,-16494.62,-19209.46,512
3.013672,-16500.99,-19218.67,512
3.015625,-16515.75,-19226.18,512
3.017578,-16512.58,-19211.37,512
3.019531,-16524.49,-19219.51,512
3.021484,-16522.73,-19219.22,512
3.023438,-16514.42,-19220.91,512
3.025391,-16530.26,-19236.68,512
3.027344,-16518.52,-19219.46,512
3.029297,-16525,-19219.17,512
3.03125,-16517.44,-19203.18,512
3.033203,-16520.87,-19197.18,512
3.035156,-16509.1,-19191.94,512
3.037109,-16516.61,-19197.89,512
3.039062,-16521.85,-19206.97,512
3.041016,-16505.17,-19191.2,512
3.042969,-16499.97,-19191.91,512
3.044922,-16501.73,-19199.87,512
3.046875,-16501.12,-19182.95,512
3.048828,-16504.73,-19182.92,512
3.050781,-16502,-19188.62,512
3.052734,-16527.25,-19193.46,512
3.054688,-16510.75,-19172.22,512
3.056641,-16495.66,-19168.13,512
3.058594,-16492.71,-19167.95,512
3.060547,-16506.69,-19183.26,512
3.0625,-16509.7,-19189.32,512
3.064453,-16523.22,-19190.23,512
3.066406,-16505.61,-19172.56,512
3.068359,-16511.1,-19180.14,512
3.070312,-16520.32,-19179.97,512
3.072266,-16494.82,-19173.42,512
3.074219,-16501.87,-19179.55,512
3.076172,-16499.22,-19193.5,512
3.078125,-16494.46,-19178.67,512
3.080078,-16507.98,-19164.21,512
3.082031,-16508.65,-19175.76,512
3.083984,-16516.43,-19191.07,512
3.085938,-16520.42,-19183.37,512
3.087891,-16519.68,-19191.46,512
3.089844,-16508.47,-19181.87,512
3.091797,-16499.12,-19180.18,512
3.09375,-16504.92,-19191.99,512
3.095703,-16487.49,-19180.16,512
3.097656,-16506.57,-19194.1,512
3.099609,-16496.38,-19170.22,512
3.101562,-16506.86,-19170.48,512
3.103516,-16520.69,-19179.53,512
3.105469,-16503.89,-19166.26,512
3.107422,-16508.12,-19185.45,512
3.109375,-16530.16,-19190.24,512
3.111328,-16523.32,-19185.25,512
3.113281,-16523.78,-19192.46,512
3.115234,-16518.62,-19171.49,512
3.117188,-16518.69,-19174.49,512
3.119141,-16512.36,-19177.04,512
3.121094,-16531.01,-19172.47,512
3.123047,-16522.94,-19173.01,512
3.125,-16504.24,-19153.43,512
3.126953,-16504.89,-19167.61,512
3.128906,-16503.33,-19172.01,512
3.130859,-16522.44,-19158.21,512
3.132812,-16513.53,-19158.22,512
3.134766,-16520.55,-19171.31,512
3.136719,-16515.38,-19184.39,512
3.138672,-16509.44,-19158.71,512
3.140625,-16532.77,-19175.12,512
3.142578,-16522.81,-19167.76,512
3.144531,-16509.85,-19151.2,512
3.146484,-16516.48,-19160.57,512
3.148438,-16509.81,-19143.3,512
3.150391,-16514.53,-19142.8,512
3.152344,-16507.22,-19136.34,512
3.154297,-16511.27,-19140.49,512
3.15625,-16500.98,-19136.33,512
3.158203,-16487.37,-19133.2,512
3.160156,-16482.5,-19135.26,512
3.162109,-16507.6,-19142.94,512
3.164062,-16509.12,-19140.87,512
3.166016,-16521.6,-19146.99,512
3.167969,-16503.03,-19122.86,512
3.169922,-16509.71,-19127.62,512
3.171875,-16514.69,-19144.05,512
3.173828,-16502.56,-19123.22,512
3.175781,-16507.76,-19147.63,512
3.177734,-16496.48,-19137.98,512
3.179688,-16503,-19143.96,512
3.181641,-16510.39,-19135.86,512
3.183594,-16506.66,-19122.79,512
3.185547,-16506.88,-19137.96,512
3.1875,-16498.52,-19121.65,512
3.189453,-16507.41,-19137.14,512
3.191406,-16494.58,-19125.1,512
3.193359,-16491.17,-19122.9,512
3.195312,-16516.31,-19138.41,512
3.197266,-16524.75,-19118.21,512
3.199219,-16509.08,-19117.54,512
3.201172,-16501.57,-19134.1,512
3.203125,-16516.14,-19138.77,512
3.205078,-16528.19,-19149.63,512
3.207031,-16502.01,-19148.33,512
3.208984,-16503.21,-19139.29,512
3.210938,-16519.02,-19156.96,512
3.212891,-16496.47,-19134.73,512
3.214844,-16527.28,-19145.34,512
3.216797,-16530.57,-19146.5,512
3.21875,-16534.13,-19139.5,512
3.220703,-16506.61,-19129.5,512
3.222656,-16504.56,-19128.97,512
3.224609,-16499.02,-19131.57,512
3.226562,-16493.46,-19134.32,512
3.228516,-16508.7,-19113.86,512
3.230469,-16520.33,-19128.38,512
3.232422,-16523.02,-19132.22,512
3.234375,-16512.76,-19119.89,512
3.236328,-16508.65,-19100.13,512
3.238281,-16505.04,-19104.16,512
3.240234,-16476.39,-19086.69,512
3.242188,-16488.15,-19095.78,512
3.244141,-16509.61,-19114.74,512
3.246094,-16475.09,-19098.05,512
3.248047,-16480.77,-19089.83,512
3.25,-16467.3,-19091.42,512
3.251953,-16485.75,-19117.79,512
3.253906,-16486.22,-19112.99,512
3.255859,-16492.64,-19107.86,512
3.257812,-16484.33,-19101.81,512
3.259766,-16474.25,-19090.29,512
3.261719,-16467.87,-19097.07,512
3.263672,-16455.55,-19093.4,512
3.265625,-16440.92,-19091.64,512
3.267578,-16452.14,-19087.84,512
3.269531,-16484.85,-19091.78,512
3.271484,-16481.91,-19083.49,512
3.273438,-16485.24,-19077.77,512
3.275391,-16492.06,-19078.27,512
3.277344,-16497.53,-19085.19,512
3.279297,-16482.46,-19069.83,512
3.28125,-16494.07,-19083.45,512
3.283203,-16501.29,-19078.09,512
3.285156,-16492.39,-19074.64,512
3.287109,-16489.06,-19066.16,512
3.289062,-16509.57,-19076.26,512
3.291016,-16517.24,-19084.18,512
3.292969,-16531.07,-19090,512
3.294922,-16521.07,-19080.54,512
3.296875,-16507.37,-19053.83,512
3.298828,-16522.01,-19060.36,512
3.300781,-16539.67,-19073.7,512
3.302734,-16544.22,-19079.8,512
3.304688,-16532.71,-19069.22,512
3.306641,-16526.48,-19067.98,512
3.308594,-16517.17,-19072.59,512
3.310547,-16518.72,-19066.04,512
3.3125,-16521.55,-19060.61,512
3.314453,-16532.6,-19073.97,512
3.316406,-16535.38,-19069.54,512
3.318359,-16522.67,-19052.26,512
3.320312,-16528.71,-19056.51,512
3.322266,-16529.43,-19065.24,512
3.324219,-16526.48,-19065.57,512
3.326172,-16497.11,-19046.69,512
3.328125,-16517.59,-19068.72,512
3.330078,-16535.21,-19080.1,512
3.332031,-16528.1,-19066.41,512
3.333984,-16494.43,-19060.72,512
3.335938,-16500.5,-19053.84,512
3.337891,-16517.06,-19052.79,512
3.339844,-16525.94,-19068.67,512
3.341797,-16514.12,-19059.29,512
3.34375,-16493.04,-19044.48,512
3.345703,-16498.34,-19048.38,512
3.347656,-16526.05,-19045.68,512
3.349609,-16524.6,-19052,512
3.351562,-16510.86,-19049.54,512
3.353516,-16519.98,-19058.46,512
3.355469,-16516.51,-19049.84,512
3.357422,-16519.47,-19045.33,512
3.359375,-16519.75,-19060.3,512
3.361328,-16518.73,-19066.92,512
3.363281,-16504.35,-19045.15,512
3.365234,-16516.27,-19062.12,512
3.367188,-16514.46,-19058.46,512
3.369141,-16513.55,-19067.39,512
3.371094,-16505.27,-19051.2,512
3.373047,-16509.6,-19061.53,512
3.375,-16519.65,-19081.1,512
3.376953,-16535.97,-19097.43,512
3.378906,-16531.62,-19096.1,512
3.380859,-16529.63,-19087.3,512
3.382812,-16527.95,-19084.93,512
3.384766,-16533.44,-19107.8,512
3.386719,-16526.89,-19115.18,512
3.388672,-16533.72,-19116.86,512
3.390625,-16520.29,-19101.67,512
3.392578,-16518.27,-19107.72,512
3.394531,-16508.81,-19102.47,512
3.396484,-16514.32,-19095.72,512
3.398438,-16521.59,-19106.14,512
3.400391,-16511.28,-19104,512
3.402344,-16524.66,-19098.33,512
3.404297,-16506.99,-19094.29,512
3.40625,-16496.89,-19091.06,512
3.408203,-16497.1,-19097.55,512
3.410156,-16483.48,-19106.78,512
3.412109,-16469.22,-19104.2,512
3.414062,-16494.77,-19129.54,512
3.416016,-16464.06,-19099.45,512
3.417969,-16450.71,-19100.16,512
3.419922,-16431.93,-19111.45,512
3.421875,-16418.33,-19124,512
3.423828,-16386.46,-19107.47,512
3.425781,-16356.31,-19121.09,512
3.427734,-16349.52,-19143.41,512
3.429688,-16326.88,-19126.81,512
3.431641,-16360.9,-19143.29,512
3.433594,-16418.36,-19150.6,512
3.435547,-16435.08,-19115.65,512
3.4375,-16475.44,-19135.57,512
3.439453,-16501.31,-19139.98,512
3.441406,-16503.2,-19131.86,512
3.443359,-16517.23,-19106.77,512
3.445312,-16574.07,-19109.65,512
3.447266,-16613.17,-19102.69,512
3.449219,-16652.24,-19111.49,512
3.451172,-16658.44,-19100.54,512
3.453125,-16653.73,-19107.36,512
3.455078,-16658.61,-19126.61,512
3.457031,-16642.39,-19121.14,512
3.458984,-16617.87,-19119.04,512
3.460938,-16603.07,-19111.27,512
3.462891,-16613.32,-19120.62,512
3.464844,-16626.4,-19146.78,512
3.466797,-16613.27,-19143.12,512
3.46875,-16590.53,-19142.01,512
3.470703,-16581.52,-19144.92,512
3.472656,-16559.1,-19133.43,512
3.474609,-16560.51,-19139.75,512
3.476562,-16555.69,-19153.81,512
3.478516,-16557.84,-19157.64,512
3.480469,-16544.16,-19150.12,512
3.482422,-16548.04,-19152.84,512
3.484375,-16530.04,-19160.08,512
3.486328,-16515.97,-19159.06,512
3.488281,-16499.54,-19147.86,512
3.490234,-16519.6,-19179.31,512
3.492188,-16517.72,-19176.1,512
3.494141,-16511.59,-19174.24,512
3.496094,-16524.36,-19181.9,512
3.498047,-16539.46,-19192.15,512
3.5,-16535.06,-19185.7,512
3.501953,-16544.27,-19193.99,512
3.503906,-16541.28,-19197.82,512
3.505859,-16533.67,-19186.83,512
3.507812,-16523.16,-19184.92,512
3.509766,-16517.37,-19178.63,512
3.511719,-16542.31,-19196.22,512
3.513672,-16534.4,-19183.43,512
3.515625,-16519.61,-19173.77,512
3.517578,-16524.97,-19187.4,512
3.519531,-16506.67,-19175.21,512
3.521484,-16506.83,-19177.24,512
3.523438,-16530.67,-19192.75,512
3.525391,-16522.15,-19191.87,512
3.527344,-16529.92,-19180.99,512
3.529297,-16536.95,-19187.29,512
3.53125,-16521.95,-19181.29,512
3.533203,-16525.6,-19183.05,512
3.535156,-16517.88,-19179.23,512
3.537109,-16528.35,-19199.12,512
3.539062,-16516.43,-19187.69,512
3.541016,-16505.24,-19183.14,512
3.542969,-16507.22,-19188.79,512
3.544922,-16497.09,-19176.3,512
3.546875,-16502.74,-19155.21,512
3.548828,-16502.56,-19178.42,512
3.550781,-16503.76,-19197.3,512
3.552734,-16498.1,-19175.45,512
3.554688,-16494.88,-19180.29,512
3.556641,-16487.87,-19179.29,512
3.558594,-16509.67,-19176.78,512
3.560547,-16502.95,-19168.38,512
3.5625,-16495.22,-19164.75,512
3.564453,-16494.19,-19178.99,512
3.566406,-16508.97,-19206.44,512
3.568359,-16503.01,-19193.19,512
3.570312,-16491.33,-19187.2,512
3.572266,-16484.92,-19181.81,512
3.574219,-16488.99,-19183.29,512
3.576172,-16515.44,-19206.69,512
3.578125,-16524.63,-19215.79,512
3.580078,-16514.68,-19209.26,512
3.582031,-16511.43,-19208.59,512
3.583984,-16504.76,-19199.33,512
3.585938,-16519.63,-19220.35,512
3.587891,-16506.16,-19226.9,512
3.589844,-16499.88,-19217.97,512
3.591797,-16511.56,-19226.53,512
3.59375,-16502.66,-19217.82,512
3.595703,-16490.14,-19200.33,512
3.597656,-16497.29,-19224.06,512
3.599609,-16494.78,-19218.81,512
3.601562,-16513.55,-19220.74,512
3.603516,-16506.44,-19225.71,512
3.605469,-16498.02,-19217.08,512
3.607422,-16534.24,-19253.85,512
3.609375,-16523.05,-19253.4,512
3.611328,-16509.81,-19236.69,512
3.613281,-16505.51,-19232.39,512
3.615234,-16506.88,-19221.84,512
3.617188,-16506.26,-19214.62,512
3.619141,-16499.87,-19228.28,512
3.621094,-16493.85,-19242.15,512
3.623047,-16494.61,-19235.63,512
3.625,-16482.42,-19218.25,512
3.626953,-16495.53,-19231.95,512
3.628906,-16488.64,-19228.45,512
3.630859,-16481.26,-19222.17,512
3.632812,-16481.04,-19232.64,512
3.634766,-16474.4,-19222.22,512
3.636719,-16476.3,-19225.29,512
3.638672,-16461.17,-19204.59,512
3.640625,-16470.43,-19208.62,512
3.642578,-16481.76,-19213.63,512
3.644531,-16492.48,-19238.88,512
3.646484,-16484.48,-19241.24,512
3.648438,-16476.64,-19234.32,512
3.650391,-16468.45,-19229.26,512
3.652344,-16480.09,-19236.48,512
3.654297,-16468.21,-19232.19,512
3.65625,-16456.23,-19217.84,512
3.658203,-16475.16,-19234.91,512
3.660156,-16467.52,-19238.94,512
3.662109,-16470.81,-19255.3,512
3.664062,-16456.68,-19239.71,512
3.666016,-16472.81,-19257,512
3.667969,-16473.15,-19263.93,512
3.669922,-16462.33,-19250.02,512
3.671875,-16446.02,-19237.94,512
3.673828,-16405.92,-19226.69,512
3.675781,-16443.23,-19254.8,512
3.677734,-16451.88,-19261.02,512
3.679688,-16442.31,-19249.54,512
3.681641,-16435.39,-19249.85,512
3.683594,-16432.87,-19249.35,512
3.685547,-16451.39,-19252.85,512
3.6875,-16463.53,-19264.9,512
3.689453,-16425.1,-19236.9,512
3.691406,-16419.28,-19247.73,512
3.693359,-16435.12,-19276.41,512
3.695312,-16428.14,-19288.91,512
3.697266,-16432.05,-19285.47,512
3.699219,-16427.83,-19274.41,512
3.701172,-16447.52,-19288.75,512
3.703125,-16441.93,-19279.24,512
3.705078,-16440.65,-19283.43,512
3.707031,-16442.55,-19272.45,512
3.708984,-16417.5,-19253.69,512
3.710938,-16424.13,-19263.55,512
3.712891,-16431.94,-19258.83,512
3.714844,-16425.33,-19248.82,512
3.716797,-16443.98,-19259.89,512
3.71875,-16441.01,-19235.44,512
3.720703,-16423.89,-19223.55,512
3.722656,-16409.69,-19203.38,512
3.724609,-16399.81,-19212.97,512
3.726562,-16419.39,-19230.7,512
3.728516,-16439.27,-19233.06,512
3.730469,-16419.93,-19233.45,512
3.732422,-16422.89,-19223.75,512
3.734375,-16437.24,-19222.61,512
3.736328,-16441.37,-19227.5,512
3.738281,-16434.74,-19216.77,512
3.740234,-16428.69,-19229.07,512
3.742188,-16456.06,-19230.3,512
3.744141,-16458.68,-19230.81,512
3.746094,-16442.77,-19226.68,512
3.748047,-16478.84,-19245.7,512
3.75,-16466.79,-19225.92,512
3.751953,-16464.58,-19220.78,512
3.753906,-16476.33,-19234.41,512
3.755859,-16483.3,-19230.94,512
3.757812,-16493.31,-19247.75,512
3.759766,-16504.46,-19252.29,512
3.761719,-16493.74,-19243.94,512
3.763672,-16482.05,-19238.76,512
3.765625,-16494.98,-19235.91,512
3.767578,-16502.2,-19243.21,512
3.769531,-16514.8,-19260.45,512
3.771484,-16515.45,-19270.28,512
3.773438,-16517.69,-19261.76,512
3.775391,-16512.45,-19259.46,512
3.777344,-16519.5,-19261.8,512
3.779297,-16509.96,-19246.31,512
3.78125,-16523.11,-19257.56,512
3.783203,-16527.4,-19261.89,512
3.785156,-16529.08,-19264.91,512
3.787109,-16523.68,-19255.29,512
3.789062,-16544.79,-19262.5,512
3.791016,-16534.18,-19268.58,512
3.792969,-16515.05,-19249.18,512
3.794922,-16530.2,-19250.31,512
3.796875,-16544.98,-19285.62,512
3.798828,-16539.54,-19267.79,512
3.800781,-16542.5,-19264.14,512
3.802734,-16535.63,-19265.88,512
3.804688,-16522.85,-19254.24,512
3.806641,-16529.47,-19268.64,512
3.808594,-16523.91,-19257.8,512
3.810547,-16531.72,-19267.96,512
3.8125,-16536.08,-19266.19,512
3.814453,-16534.3,-19275.29,512
3.816406,-16534.94,-19265.07,512
3.818359,-16533.41,-19258.34,512
3.820312,-16533.23,-19271.28,512
3.822266,-16521.06,-19269.19,512
3.824219,-16539.79,-19288.41,512
3.826172,-16541.16,-19293.43,512
3.828125,-16522.73,-19288.33,512
3.830078,-16520.45,-19284.38,512
3.832031,-16505.6,-19262.66,512
3.833984,-16503.98,-19253.22,512
3.835938,-16502.88,-19228.14,512
3.837891,-16546.76,-19288.12,512
3.839844,-16542.94,-19283.1,512
3.841797,-16536.23,-19286.3,512
3.84375,-16542.3,-19282.06,512
3.845703,-16518,-19267.51,512
3.847656,-16527.69,-19286.26,512
3.849609,-16524.82,-19270.48,512
3.851562,-16533.75,-19279.13,512
3.853516,-16517.49,-19276.69,512
3.855469,-16524.27,-19282.22,512
3.857422,-16511.12,-19273.72,512
3.859375,-16532.35,-19307.63,512
3.861328,-16538.12,-19310.66,512
3.863281,-16520.98,-19295.67,512
3.865234,-16529.39,-19302.92,512
3.867188,-16541.15,-19307.9,512
3.869141,-16552.48,-19322.36,512
3.871094,-16538.39,-19324.66,512
3.873047,-16508.75,-19313,512
3.875,-16532.74,-19331.26,512
3.876953,-16526.72,-19323.55,512
3.878906,-16540.95,-19338.37,512
3.880859,-16550.91,-19341.13,512
3.882812,-16548.39,-19335.78,512
3.884766,-16538.14,-19324.46,512
3.886719,-16530.94,-19319.34,512
3.888672,-16528.9,-19331.46,512
3.890625,-16529.56,-19333.59,512
3.892578,-16526.99,-19327.35,512
3.894531,-16524.04,-19334.22,512
3.896484,-16515.52,-19349.9,512
3.898438,-16519.76,-19324.74,512
3.900391,-16527.52,-19321.83,512
3.902344,-16542.9,-19340.44,512
3.904297,-16547.15,-19353.5,512
3.90625,-16536.82,-19358.54,512
3.908203,-16516.74,-19334.93,512
3.910156,-16514.59,-19333.49,512
3.912109,-16530.89,-19341.2,512
3.914062,-16536.39,-19337.73,512
3.916016,-16541.54,-19347.41,512
3.917969,-16560.87,-19356.38,512
3.919922,-16548.71,-19352.47,512
3.921875,-16544.52,-19352.47,512
3.923828,-16530.87,-19346.35,512
3.925781,-16524.01,-19338.43,512
3.927734,-16525.41,-19337.48,512
3.929688,-16533.34,-19362.21,512
3.931641,-16519.47,-19353.25,512
3.933594,-16517.91,-19362.67,512
3.935547,-16510.66,-19356.32,512
3.9375,-16545.97,-19376.46,512
3.939453,-16569.81,-19388.58,512
3.941406,-16540.72,-19373.69,512
3.943359,-16519.84,-19367.07,512
3.945312,-16519.85,-19376.8,512
3.947266,-16531.57,-19388.51,512
3.949219,-16521.09,-19371.85,512
3.951172,-16542.12,-19388.5,512
3.953125,-16544.24,-19386.53,512
3.955078,-16543.84,-19392.59,512
3.957031,-16542.64,-19394.87,512
3.958984,-16529.52,-19389.38,512
3.960938,-16541.71,-19408.08,512
3.962891,-16542.67,-19408.32,512
3.964844,-16542.75,-19401.5,512
3.966797,-16523.88,-19368.43,512
3.96875,-16541.53,-19385.34,512
3.970703,-16548.3,-19406.48,512
3.972656,-16532.4,-19396.19,512
3.974609,-16521.31,-19385.88,512
3.976562,-16517.96,-19423.75,512
3.978516,-16513.99,-19415.57,512
3.980469,-16526.96,-19414.03,512
3.982422,-16551.56,-19422.99,512
3.984375,-16561.59,-19412.58,512
3.986328,-16549.59,-19419.79,512
3.988281,-16545.52,-19436.84,512
3.990234,-16557.1,-19441.17,512
3.992188,-16551.41,-19441.38,512
3.994141,-16533.72,-19435.16,512
3.996094,-16542.58,-19447.46,512
3.998047,-16532.66,-19440.61,512
4,-16539.72,-19440.22,512
4.001953,-16555.54,-19441.01,512
4.003906,-16535.65,-19422.68,512
4.005859,-16552.56,-19447.66,512
4.007812,-16541.12,-19442.79,512
4.009766,-16534.84,-19446.65,512
4.011719,-16517.34,-19445.68,512
4.013672,-16518.32,-19446.59,512
4.015625,-16547.81,-19466.5,512
4.017578,-16528.07,-19447.64,512
4.019531,-16523.74,-19442.39,512
4.021484,-16536.22,-19450.66,512
4.023438,-16544.27,-19441.63,512
4.025391,-16519.78,-19433.22,512
4.027344,-16530.12,-19470.2,512
4.029297,-16533.28,-19456.55,512
4.03125,-16525.27,-19443.13,512
4.033203,-16533.01,-19450.67,512
4.035156,-16512.88,-19430.01,512
4.037109,-16540.28,-19449.33,512
4.039062,-16537.41,-19459.04,512
4.041016,-16520.25,-19439.32,512
4.042969,-16515.72,-19440.53,512
4.044922,-16531.53,-19456.63,512
4.046875,-16549.33,-19463.41,512
4.048828,-16556.13,-19455.47,512
4.050781,-16552.27,-19449.23,512
4.052734,-16550.88,-19463.79,512
4.054688,-16552.75,-19463.58,512
4.056641,-16555.41,-19459.39,512
4.058594,-16547.13,-19468.17,512
4.060547,-16541.27,-19483.75,512
4.0625,-16554.46,-19470.09,512
4.064453,-16555.68,-19482.5,512
4.066406,-16530.38,-19466.83,512
4.068359,-16530.46,-19460.48,512
4.070312,-16536.04,-19460.59,512
4.072266,-16536.53,-19473.84,512
4.074219,-16565.34,-19495.35,512
4.076172,-16542.41,-19484.65,512
4.078125,-16561.51,-19502.57,512
4.080078,-16579.66,-19503.75,512
4.082031,-16568.69,-19496.71,512
4.083984,-16557.3,-19486.6,512
4.085938,-16550.9,-19484.69,512
4.087891,-16543.59,-19482.23,512
4.089844,-16540.8,-19479.5,512
4.091797,-16561.89,-19491.31,512
4.09375,-16545.96,-19467.78,512
4.095703,-16554.18,-19480.14,512
4.097656,-16578.85,-19499.83,512
4.099609,-16546.97,-19469.09,512
4.101562,-16556.26,-19480.26,512
4.103516,-16566.02,-19493.72,512
4.105469,-16554.71,-19488.21,512
4.107422,-16540.53,-19463.65,512
4.109375,-16542.8,-19459.25,512
4.111328,-16542.93,-19456.5,512
4.113281,-16540.14,-19453.9,512
4.115234,-16538.71,-19460.69,512
4.117188,-16548.87,-19465.71,512
4.119141,-16544.51,-19464.73,512
4.121094,-16540.98,-19461.12,512
4.123047,-16525.51,-19461.31,512
4.125,-16540.3,-19469.97,512
4.126953,-16528,-19450.9,512
4.128906,-16528.73,-19466.28,512
4.130859,-16546.41,-19482.58,512
4.132812,-16545.66,-19474.11,512
4.134766,-16549.78,-19486.82,512
4.136719,-16548.32,-19482.49,512
4.138672,-16518.37,-19463.05,512
4.140625,-16516.28,-19471.83,512
4.142578,-16539.2,-19466.21,512
4.144531,-16531.56,-19448.61,512
4.146484,-16548.94,-19455.21,512
4.148438,-16551.01,-19461.23,512
4.150391,-16527.1,-19446.09,512
4.152344,-16534.07,-19461.46,512
4.154297,-16541.67,-19464.08,512
4.15625,-16524.52,-19441.14,512
4.158203,-16510.73,-19426.42,512
4.160156,-16529.76,-19441.26,512
4.162109,-16543.93,-19475.56,512
4.164062,-16558.23,-19495.02,512
4.166016,-16553.11,-19473.27,512
4.167969,-16563.15,-19476.55,512
4.169922,-16559.33,-19468.64,512
4.171875,-16534.21,-19453.95,512
4.173828,-16561.84,-19467.53,512
4.175781,-16557.59,-19453.03,512
4.177734,-16563.88,-19455.48,512
4.179688,-16575.51,-19443.22,512
4.181641,-16566.61,-19439.85,512
4.183594,-16549.22,-19444.23,512
4.185547,-16552.98,-19432.07,512
4.1875,-16545.69,-19413.66,512
4.189453,-16542.39,-19421.32,512
4.191406,-16539.08,-19421.53,512
4.193359,-16548.01,-19417.2,512
4.195312,-16526,-19404.93,512
4.197266,-16518.52,-19401.51,512
4.199219,-16530.85,-19408.32,512
4.201172,-16534.42,-19404.46,512
4.203125,-16528.03,-19387.91,512
4.205078,-16530.35,-19383.73,512
4.207031,-16525.02,-19380.96,512
4.208984,-16523.29,-19376.34,512
4.210938,-16507.14,-19368.33,512
4.212891,-16517.1,-19366.22,512
4.214844,-16523.12,-19356.71,512
4.216797,-16523.5,-19364.21,512
4.21875,-16521.31,-19359.23,512
4.220703,-16511.59,-19347.89,512
4.222656,-16524.53,-19354.74,512
4.224609,-16525.9,-19351.48,512
4.226562,-16499.65,-19345.79,512
4.228516,-16537.88,-19371.83,512
4.230469,-16528.11,-19352.77,512
4.232422,-16534.65,-19354.1,512
4.234375,-16534.14,-19353.18,512
4.236328,-16517.33,-19341,512
4.238281,-16521.32,-19340.88,512
4.240234,-16524.57,-19348.23,512
4.242188,-16530.55,-19353.65,512
4.244141,-16511.79,-19331.71,512
4.246094,-16513.48,-19352.44,512
4.248047,-16536.1,-19344.82,512
4.25,-16521.74,-19347.36,512
4.251953,-16547.74,-19365.68,512
4.253906,-16549.26,-19357.05,512
4.255859,-16533.53,-19352.22,512
4.257812,-16528.76,-19336.63,512
4.259766,-16529.36,-19350.32,512
4.261719,-16544.14,-19361.73,512
4.263672,-16536.94,-19355.49,512
4.265625,-16548.6,-19354.72,512
4.267578,-16544.76,-19361.19,512
4.269531,-16534.37,-19351.58,512
4.271484,-16533.79,-19344.03,512
4.273438,-16525.91,-19359.21,512
4.275391,-16512.95,-19362.82,512
4.277344,-16520.48,-19359.59,512
4.279297,-16543.15,-19376.3,512
4.28125,-16528.98,-19369.53,512
4.283203,-16508.72,-19354.28,512
4.285156,-16528.34,-19368.67,512
4.287109,-16514.7,-19362.37,512
4.289062,-16491.85,-19345.27,512
4.291016,-16467.02,-19350.1,512
4.292969,-16496.89,-19350.76,512
4.294922,-16516.43,-19362.17,512
4.296875,-16501.64,-19358.25,512
4.298828,-16503.45,-19355.78,512
4.300781,-16480.17,-19347.04,512
4.302734,-16496.08,-19335.97,512
4.304688,-16512.8,-19346.09,512
4.306641,-16500.66,-19341.83,512
4.308594,-16504.74,-19331.86,512
4.310547,-16511.03,-19345.21,512
4.3125,-16496.27,-19336.75,512
4.314453,-16501.98,-19333.63,512
4.316406,-16504.88,-19329.29,512
4.318359,-16509.27,-19323.41,512
4.320312,-16518.25,-19330.7,512
4.322266,-16520.44,-19336.59,512
4.324219,-16537.87,-19355.31,512
4.326172,-16548.53,-19359.32,512
4.328125,-16548.39,-19358.66,512
4.330078,-16547.98,-19352.61,512
4.332031,-16553.17,-19368.4,512
4.333984,-16558.1,-19370.52,512
4.335938,-16550.27,-19361.33,512
4.337891,-16555.39,-19364.4,512
4.339844,-16547.31,-19362.79,512
4.341797,-16566.23,-19377.1,512
4.34375,-16565.06,-19385.94,512
4.345703,-16566.45,-19381.27,512
4.347656,-16573.33,-19391.19,512
4.349609,-16583.83,-19403.38,512
4.351562,-16571.39,-19389.29,512
4.353516,-16566.79,-19381.92,512
4.355469,-16579.9,-19384.31,512
4.357422,-16569.78,-19372.38,512
4.359375,-16562.6,-19357.79,512
4.361328,-16564.89,-19367.41,512
4.363281,-16561.99,-19368.58,512
4.365234,-16561.18,-19370.17,512
4.367188,-16556.25,-19372.97,512
4.369141,-16578.63,-19388.82,512
4.371094,-16543.83,-19364.65,512
4.373047,-16527.16,-19358.04,512
4.375,-16576.75,-19383.8,512
4.376953,-16547.63,-19384.39,512
4.378906,-16571.25,-19384.71,512
4.380859,-16568.94,-19382.09,512
4.382812,-16555.87,-19373.53,512
4.384766,-16540.91,-19362.13,512
4.386719,-16551.56,-19385.46,512
4.388672,-16549.78,-19365.53,512
4.390625,-16540.23,-19364.68,512
4.392578,-16553.55,-19387.4,512
4.394531,-16534.46,-19372,512
4.396484,-16532.3,-19369.62,512
4.398438,-16559.05,-19388.94,512
4.400391,-16543.79,-19366.08,512
4.402344,-16545.19,-19370.43,512
4.404297,-16534.95,-19377.02,512
4.40625,-16528.98,-19366.58,512
4.408203,-16539.64,-19382.43,512
4.410156,-16525.85,-19393.15,512
4.412109,-16526.82,-19382.78,512
4.414062,-16522.59,-19377.94,512
4.416016,-16532.26,-19404.69,512
4.417969,-16555.69,-19425.14,512
4.419922,-16542.39,-19407.98,512
4.421875,-16556.48,-19403.76,512
4.423828,-16540.78,-19409.04,512
4.425781,-16551.2,-19413.04,512
4.427734,-16526.46,-19400.49,512
4.429688,-16515.48,-19415.76,512
4.431641,-16540.07,-19417.44,512
4.433594,-16550.9,-19435.73,512
4.435547,-16568.3,-19460.02,512
4.4375,-16541.56,-19443.21,512
4.439453,-16539.17,-19449.09,512
4.441406,-16551.56,-19458.25,512
4.443359,-16523.08,-19443.3,512
4.445312,-16508.12,-19434.72,512
4.447266,-16507.27,-19445.41,512
4.449219,-16499.57,-19443.97,512
4.451172,-16469.32,-19446,512
4.453125,-16443.78,-19427.46,512
4.455078,-16432.85,-19435.88,512
4.457031,-16412.01,-19446.01,512
4.458984,-16391.54,-19461.8,512
4.460938,-16393.98,-19463.33,512
4.462891,-16426.27,-19444.15,512
4.464844,-16471.93,-19445.74,512
4.466797,-16502.92,-19424.12,512
4.46875,-16526.4,-19437.51,512
4.470703,-16555.64,-19447.66,512
4.472656,-16556.38,-19407.37,512
4.474609,-16594.58,-19425.95,512
4.476562,-16639.86,-19418.51,512
4.478516,-16658.24,-19396.97,512
4.480469,-16669.96,-19394.9,512
4.482422,-16681.6,-19380.62,512
4.484375,-16666.32,-19375.82,512
4.486328,-16663.15,-19379.72,512
4.488281,-16647.11,-19397.68,512
4.490234,-16622.79,-19400.74,512
4.492188,-16642.72,-19403.85,512
4.494141,-16654.83,-19420.27,512
4.496094,-16629.59,-19409.07,512
4.498047,-16627.76,-19426.87,512
4.5,-16613.9,-19415.73,512
4.501953,-16587.99,-19416.2,512
4.503906,-16572.7,-19416.77,512
4.505859,-16604.14,-19429.03,512
4.507812,-16608.43,-19436.81,512
4.509766,-16600.03,-19458.75,512
4.511719,-16588.75,-19448.15,512
4.513672,-16587.6,-19465.35,512
4.515625,-16577.72,-19464.16,512
4.517578,-16567.02,-19467,512
4.519531,-16560.81,-19473.94,512
4.521484,-16548.68,-19454.35,512
4.523438,-16552.2,-19455.03,512
4.525391,-16563.97,-19489.87,512
4.527344,-16554.27,-19490.5,512
4.529297,-16546.68,-19467.46,512
4.53125,-16562.52,-19474.97,512
4.533203,-16568.98,-19469.4,512
4.535156,-16555.79,-19481.88,512
4.537109,-16553.87,-19498.33,512
4.539062,-16538.86,-19486.22,512
4.541016,-16560.24,-19481.32,512
4.542969,-16552.83,-19491.3,512
4.544922,-16547.04,-19494.15,512
4.546875,-16535.59,-19489.15,512
4.548828,-16545.94,-19485.65,512
4.550781,-16569.39,-19484.44,512
4.552734,-16549.96,-19482.86,512
4.554688,-16550.59,-19476.08,512
4.556641,-16555.91,-19491.87,512
4.558594,-16554,-19500.81,512
4.560547,-16531.42,-19480.08,512
4.5625,-16552.24,-19499.71,512
4.564453,-16552.7,-19492.03,512
4.566406,-16554.12,-19504.11,512
4.568359,-16557.36,-19496.94,512
4.570312,-16550.99,-19470.23,512
4.572266,-16553.72,-19484.75,512
4.574219,-16536.17,-19500.93,512
4.576172,-16532.23,-19488.74,512
4.578125,-16542.31,-19499.93,512
4.580078,-16537.47,-19492.11,512
4.582031,-16529.4,-19492.94,512
4.583984,-16543.92,-19499.75,512
4.585938,-16562.66,-19510.31,512
4.587891,-16549.03,-19504.76,512
4.589844,-16537.92,-19499.46,512
4.591797,-16530.28,-19493.41,512
4.59375,-16529.71,-19495.63,512
4.595703,-16543.36,-19519.45,512
4.597656,-16526.12,-19502.53,512
4.599609,-16540.62,-19505.61,512
4.601562,-16541.01,-19494.32,512
4.603516,-16550.32,-19503.2,512
4.605469,-16559.82,-19519.51,512
4.607422,-16535.41,-19503.19,512
4.609375,-16515.83,-19493.2,512
4.611328,-16544.55,-19519.11,512
4.613281,-16533.92,-19501.34,512
4.615234,-16541.3,-19526.99,512
4.617188,-16530.29,-19505.17,512
4.619141,-16569.93,-19529,512
4.621094,-16563.05,-19532.66,512
4.623047,-16527.42,-19504.05,512
4.625,-16533.54,-19513.89,512
4.626953,-16539.36,-19517.28,512
4.628906,-16545.55,-19533.97,512
4.630859,-16543.15,-19526.41,512
4.632812,-16539.34,-19511.49,512
4.634766,-16548.17,-19525.59,512
4.636719,-16556.88,-19535.34,512
4.638672,-16548.85,-19523.36,512
4.640625,-16552.86,-19533.84,512
4.642578,-16548.69,-19535.69,512
4.644531,-16529.05,-19531.33,512
4.646484,-16546.64,-19536.08,512
4.648438,-16550.49,-19519.79,512
4.650391,-16540.76,-19506.44,512
4.652344,-16542.34,-19520.16,512
4.654297,-16539.87,-19537.36,512
4.65625,-16533.38,-19529.37,512
4.658203,-16531.18,-19501.74,512
4.660156,-16538.16,-19505.26,512
4.662109,-16529.42,-19522.62,512
4.664062,-16529.26,-19512.13,512
4.666016,-16528.05,-19523.73,512
4.667969,-16518.29,-19515.09,512
4.669922,-16536.47,-19522.24,512
4.671875,-16528.73,-19519.61,512
4.673828,-16502.98,-19495.88,512
4.675781,-16497.65,-19525.77,512
4.677734,-16515.02,-19536.2,512
4.679688,-16529.94,-19546.35,512
4.681641,-16519.54,-19533.32,512
4.683594,-16526.33,-19535.87,512
4.685547,-16494.05,-19508.69,512
4.6875,-16476.19,-19492.32,512
4.689453,-16519.13,-19519.97,512
4.691406,-16489.22,-19520.7,512
4.693359,-16500.65,-19532.33,512
4.695312,-16506.53,-19529.78,512
4.697266,-16480.78,-19520.35,512
4.699219,-16506.5,-19542.6,512
4.701172,-16484.08,-19527.36,512
4.703125,-16492.21,-19518.49,512
4.705078,-16498.9,-19519.42,512
4.707031,-16477.4,-19496.32,512
4.708984,-16496.04,-19531.8,512
4.710938,-16501.8,-19556.56,512
4.712891,-16494.9,-19530.45,512
4.714844,-16481.77,-19538.21,512
4.716797,-16464.06,-19526.62,512
4.71875,-16476.67,-19540.32,512
4.720703,-16511.42,-19560.69,512
4.722656,-16498.07,-19551.42,512
4.724609,-16491.85,-19541.27,512
4.726562,-16483.46,-19535.23,512
4.728516,-16476.97,-19522.13,512
4.730469,-16442.84,-19518.83,512
4.732422,-16440.78,-19524.41,512
4.734375,-16483.61,-19532.37,512
4.736328,-16462.68,-19526.63,512
4.738281,-16466.09,-19535.89,512
4.740234,-16476.17,-19558.28,512
4.742188,-16460.46,-19536.87,512
4.744141,-16427.2,-19533.56,512
4.746094,-16452.84,-19533.47,512
4.748047,-16465.48,-19519.99,512
4.75,-16456.93,-19509.53,512
4.751953,-16476.83,-19514.09,512
4.753906,-16470.88,-19533.03,512
4.755859,-16468.92,-19548.65,512
4.757812,-16456.38,-19532.55,512
4.759766,-16458.93,-19520.85,512
4.761719,-16469.36,-19516.73,512
4.763672,-16478.4,-19517.42,512
4.765625,-16480.11,-19517.13,512
4.767578,-16491.15,-19527.75,512
4.769531,-16489.47,-19521.64,512
4.771484,-16487.33,-19515.64,512
4.773438,-16490.71,-19507.38,512
4.775391,-16486.4,-19496.49,512
4.777344,-16495.15,-19520.54,512
4.779297,-16487.04,-19518.92,512
4.78125,-16511.89,-19526.21,512
4.783203,-16512.62,-19532.26,512
4.785156,-16513.46,-19518.61,512
4.787109,-16512.11,-19523.87,512
4.789062,-16513.8,-19516.21,512
4.791016,-16521.86,-19513.58,512
4.792969,-16527.34,-19532.22,512
4.794922,-16535.23,-19527.41,512
4.796875,-16546.37,-19528.49,512
4.798828,-16534.25,-19526.25,512
4.800781,-16556.78,-19524.42,512
4.802734,-16536.15,-19504.69,512
4.804688,-16520.24,-19502.66,512
4.806641,-16560.31,-19515.13,512
4.808594,-16576.35,-19524.35,512
4.810547,-16567.5,-19519.18,512
4.8125,-16552.81,-19504.3,512
4.814453,-16552.51,-19488.61,512
4.816406,-16548.88,-19498.67,512
4.818359,-16552.51,-19502.93,512
4.820312,-16557.52,-19494.16,512
4.822266,-16562.44,-19506.17,512
4.824219,-16553.24,-19505.72,512
4.826172,-16567.25,-19517.23,512
4.828125,-16565.64,-19512.99,512
4.830078,-16556.49,-19512.71,512
4.832031,-16537.86,-19513.47,512
4.833984,-16551.28,-19513.38,512
4.835938,-16583.79,-19533.56,512
4.837891,-16570.79,-19523.89,512
4.839844,-16552.4,-19527.08,512
4.841797,-16557.09,-19528.75,512
4.84375,-16546.61,-19503.26,512
4.845703,-16549.98,-19530.08,512
4.847656,-16559.57,-19521.32,512
4.849609,-16569.17,-19521.74,512
4.851562,-16562.13,-19529.79,512
4.853516,-16545.26,-19512.99,512
4.855469,-16569.84,-19539.73,512
4.857422,-16558.36,-19535.59,512
4.859375,-16545.68,-19520.9,512
4.861328,-16540.1,-19516.67,512
4.863281,-16546.37,-19515.44,512
4.865234,-16586.14,-19552.08,512
4.867188,-16591.1,-19547.19,512
4.869141,-16573.84,-19548.13,512
4.871094,-16585.4,-19543.94,512
4.873047,-16597.2,-19544.57,512
4.875,-16574.59,-19522.82,512
4.876953,-16592.88,-19565.31,512
4.878906,-16573.68,-19565.02,512
4.880859,-16574.69,-19558.02,512
4.882812,-16600.81,-19559.13,512
4.884766,-16580.18,-19542.88,512
4.886719,-16576.68,-19544.87,512
4.888672,-16582.81,-19535.13,512
4.890625,-16559.19,-19534.73,512
4.892578,-16553.7,-19524.24,512
4.894531,-16562.46,-19513.48,512
4.896484,-16564.41,-19534.91,512
4.898438,-16564.81,-19524.12,512
4.900391,-16558.05,-19529.8,512
4.902344,-16551.38,-19525.92,512
4.904297,-16550.46,-19517.78,512
4.90625,-16547.88,-19515.32,512
4.908203,-16560.17,-19532.3,512
4.910156,-16547.11,-19509.95,512
4.912109,-16551.38,-19506.69,512
4.914062,-16556.53,-19514.43,512
4.916016,-16549.86,-19528.88,512
4.917969,-16511.51,-19503.65,512
4.919922,-16548.25,-19510.14,512
4.921875,-16560.95,-19514.36,512
4.923828,-16563.91,-19514.51,512
4.925781,-16552.36,-19520.87,512
4.927734,-16552.57,-19533.78,512
4.929688,-16552.84,-19520.91,512
4.931641,-16533.83,-19519.47,512
4.933594,-16534.83,-19500.07,512
4.935547,-16537.62,-19496.3,512
4.9375,-16536.6,-19519.62,512
4.939453,-16560.15,-19537.53,512
4.941406,-16558.12,-19527.61,512
4.943359,-16545.53,-19509.49,512
4.945312,-16523.16,-19504.57,512
4.947266,-16533.83,-19519.35,512
4.949219,-16542.68,-19516.38,512
4.951172,-16572.27,-19502.79,512
4.953125,-16596.15,-19547.37,512
4.955078,-16591.64,-19551.75,512
4.957031,-16588.87,-19554.44,512
4.958984,-16571.42,-19549.37,512
4.960938,-16560.99,-19538.06,512
4.962891,-16577.07,-19533.18,512
4.964844,-16561.72,-19517.18,512
4.966797,-16546.4,-19520,512
4.96875,-16531.03,-19513.88,512
4.970703,-16561.78,-19518.19,512
4.972656,-16571.74,-19546.42,512
4.974609,-16561.89,-19532.01,512
4.976562,-16566.84,-19546.21,512
4.978516,-16568.01,-19546.72,512
4.980469,-16571.28,-19540.99,512
4.982422,-16551.21,-19532.05,512
4.984375,-16549.88,-19510.14,512
4.986328,-16568.26,-19512.59,512
4.988281,-16558.43,-19520.74,512
4.990234,-16527.14,-19512.77,512
4.992188,-16521.79,-19506.67,512
4.994141,-16535.04,-19516.76,512
4.996094,-16544.02,-19525.08,512
4.998047,-16551.2,-19524.93,512
5,-16547.53,-19529.33,512
5.001953,-16544.99,-19521.41,512
5.003906,-16539.76,-19512.13,512
5.005859,-16540.04,-19521.55,512
5.007812,-16519.97,-19505.74,512
5.009766,-16508.3,-19493.57,512
5.011719,-16521.33,-19508.04,512
5.013672,-16531.18,-19518.16,512
5.015625,-16548.88,-19536.36,512
5.017578,-16568.44,-19533.94,512
5.019531,-16563.33,-19541.19,512
5.021484,-16555.42,-19517.4,512
5.023438,-16544.89,-19511.5,512
5.025391,-16546.85,-19525.46,512
5.027344,-16552.25,-19544.04,512
5.029297,-16540.89,-19557.29,512
5.03125,-16561.54,-19565.3,512
5.033203,-16570.82,-19560.76,512
5.035156,-16534.46,-19536.11,512
5.037109,-16544.93,-19558.65,512
5.039062,-16580.17,-19582.72,512
5.041016,-16543.05,-19550.96,512
5.042969,-16560.18,-19565.44,512
5.044922,-16564.28,-19566.29,512
5.046875,-16563.79,-19572.58,512
5.048828,-16571.65,-19562.22,512
5.050781,-16576.49,-19561.4,512
5.052734,-16541,-19545.55,512
5.054688,-16578.89,-19577.87,512
5.056641,-16563.51,-19574.51,512
5.058594,-16560.66,-19579.55,512
5.060547,-16568.42,-19572.88,512
5.0625,-16560.31,-19559.71,512
5.064453,-16573.86,-19561.55,512
5.066406,-16575.61,-19573.85,512
5.068359,-16567.89,-19564.2,512
5.070312,-16571.81,-19553.29,512
5.072266,-16555.48,-19555.51,512
5.074219,-16550.59,-19557.37,512
5.076172,-16538.19,-19541.92,512
5.078125,-16539.29,-19544.32,512
5.080078,-16541.08,-19556.88,512
5.082031,-16542.52,-19558.11,512
5.083984,-16552.12,-19555.32,512
5.085938,-16535.29,-19559.08,512
5.087891,-16538.43,-19553.45,512
5.089844,-16544.27,-19554.52,512
5.091797,-16528.57,-19556.37,512
5.09375,-16545.14,-19554.76,512
5.095703,-16553.04,-19552.13,512
5.097656,-16547.81,-19549.84,512
5.099609,-16558.75,-19569.52,512
5.101562,-16566.68,-19556.87,512
5.103516,-16559.6,-19561.32,512
5.105469,-16549.33,-19565.3,512
5.107422,-16553.78,-19561.6,512
5.109375,-16551.82,-19565.79,512
5.111328,-16556.87,-19570.7,512
5.113281,-16563.22,-19573.65,512
5.115234,-16555.03,-19568.42,512
5.117188,-16553.6,-19580.01,512
5.119141,-16550.13,-19569.51,512
5.121094,-16572.73,-19565.79,512
5.123047,-16579.45,-19569.74,512
5.125,-16600.46,-19583.11,512
5.126953,-16605.09,-19589.5,512
5.128906,-16586.42,-19579.81,512
5.130859,-16568.18,-19578.64,512
5.132812,-16569.32,-19590.55,512
5.134766,-16574.26,-19596.78,512
5.136719,-16561.24,-19593.06,512
5.138672,-16563.85,-19599.24,512
5.140625,-16562.96,-19579.94,512
5.142578,-16558.07,-19583.37,512
5.144531,-16542.11,-19548.38,512
5.146484,-16556.38,-19574.56,512
5.148438,-16554.98,-19589.58,512
5.150391,-16543.77,-19564.98,512
5.152344,-16571.15,-19584.68,512
5.154297,-16578.09,-19597.65,512
5.15625,-16556.07,-19575.66,512
5.158203,-16530.49,-19574.11,512
5.160156,-16522.02,-19563.43,512
5.162109,-16509.7,-19548.04,512
5.164062,-16517.29,-19554.41,512
5.166016,-16518.69,-19570.73,512
5.167969,-16493.22,-19561.88,512
5.169922,-16502.46,-19558.41,512
5.171875,-16531.68,-19562.25,512
5.173828,-16516.03,-19555.5,512
5.175781,-16528.82,-19556.26,512
5.177734,-16511.84,-19548.5,512
5.179688,-16496.07,-19551.6,512
5.181641,-16533.07,-19572.33,512
5.183594,-16551.26,-19574.42,512
5.185547,-16536.2,-19557.12,512
5.1875,-16551.13,-19564.25,512
5.189453,-16543.49,-19563.4,512
5.191406,-16533.69,-19567.1,512
5.193359,-16539.61,-19578.93,512
5.195312,-16529.94,-19580.27,512
5.197266,-16537.08,-19565.39,512
5.199219,-16541.1,-19568.66,512
5.201172,-16555.79,-19576.51,512
5.203125,-16544.94,-19554.97,512
5.205078,-16546.95,-19581.77,512
5.207031,-16545.04,-19564.89,512
5.208984,-16547.45,-19578.49,512
5.210938,-16541.53,-19568.51,512
5.212891,-16550.23,-19594.85,512
5.214844,-16550.12,-19563.16,512
5.216797,-16562.2,-19584.16,512
5.21875,-16543.26,-19560.32,512
5.220703,-16517.99,-19550.84,512
5.222656,-16552.34,-19573.4,512
5.224609,-16569.25,-19597,512
5.226562,-16526,-19565.84,512
5.228516,-16538.07,-19570.98,512
5.230469,-16554.77,-19553.41,512
5.232422,-16541.47,-19562.16,512
5.234375,-16546.02,-19584.34,512
5.236328,-16525.87,-19549.47,512
5.238281,-16531.83,-19551.48,512
5.240234,-16527.51,-19562.57,512
5.242188,-16537.8,-19563.29,512
5.244141,-16529.58,-19550.93,512
5.246094,-16559.27,-19550.28,512
5.248047,-16565.93,-19554.87,512
5.25,-16545.88,-19548.4,512
5.251953,-16545.82,-19542.24,512
5.253906,-16516.7,-19528.88,512
5.255859,-16513.8,-19535.95,512
5.257812,-16531.26,-19557.57,512
5.259766,-16537.5,-19555.94,512
5.261719,-16533.65,-19546.61,512
5.263672,-16534.88,-19552.56,512
5.265625,-16522.7,-19531.47,512
5.267578,-16539.71,-19554.5,512
5.269531,-16527.79,-19537,512
5.271484,-16526.81,-19540.43,512
5.273438,-16516.17,-19544.96,512
5.275391,-16525.19,-19557.94,512
5.277344,-16523.12,-19544.74,512
5.279297,-16510.28,-19556.07,512
5.28125,-16521.32,-19556.13,512
5.283203,-16507.21,-19549.37,512
5.285156,-16526.01,-19547.17,512
5.287109,-16504.1,-19532,512
5.289062,-16521.28,-19553.91,512
5.291016,-16539.37,-19561.95,512
5.292969,-16538.34,-19558.16,512
5.294922,-16513.25,-19548.68,512
5.296875,-16500.38,-19571.27,512
5.298828,-16480.71,-19554.41,512
5.300781,-16508.54,-19548.62,512
5.302734,-16536.81,-19556.17,512
5.304688,-16497.13,-19533.48,512
5.306641,-16511.24,-19556.98,512
5.308594,-16518.34,-19587,512
5.310547,-16513.3,-19592.24,512
5.3125,-16528.59,-19589.99,512
5.314453,-16507.34,-19563.71,512
5.316406,-16503.71,-19557.93,512
5.318359,-16520.98,-19562.46,512
5.320312,-16512.3,-19563.65,512
5.322266,-16506.62,-19559.54,512
5.324219,-16505.56,-19549.71,512
5.326172,-16521.89,-19558.69,512
5.328125,-16511.99,-19534.47,512
5.330078,-16518.09,-19550.74,512
5.332031,-16513.17,-19569.32,512
5.333984,-16511.44,-19553.24,512
5.335938,-16528.34,-19552.45,512
5.337891,-16513.73,-19535.84,512
5.339844,-16522.54,-19534.56,512
5.341797,-16541.44,-19538.98,512
5.34375,-16548.43,-19546.79,512
5.345703,-16533.76,-19546.63,512
5.347656,-16514.3,-19537.84,512
5.349609,-16571.16,-19540.89,512
5.351562,-16577.36,-19552.04,512
5.353516,-16575.13,-19574.66,512
5.355469,-16551.76,-19555.13,512
5.357422,-16554.52,-19541.3,512
5.359375,-16560.93,-19554.96,512
5.361328,-16539.12,-19559.72,512
5.363281,-16554.05,-19554.72,512
5.365234,-16558.6,-19541.53,512
5.367188,-16558.87,-19551.42,512
5.369141,-16575.78,-19566.71,512
5.371094,-16570.58,-19569.42,512
5.373047,-16548.89,-19555.39,512
5.375,-16531.45,-19532.85,512
5.376953,-16543.09,-19549.8,512
5.378906,-16562.92,-19572,512
5.380859,-16543.17,-19544.58,512
5.382812,-16537.88,-19542.62,512
5.384766,-16550.98,-19536.1,512
5.386719,-16558.66,-19550.44,512
5.388672,-16559.62,-19554.95,512
5.390625,-16564.21,-19541.82,512
5.392578,-16550.67,-19552.99,512
5.394531,-16541.81,-19538.42,512
5.396484,-16551.01,-19552.51,512
5.398438,-16535.05,-19552.26,512
5.400391,-16541.53,-19559.55,512
5.402344,-16544.37,-19548.28,512
5.404297,-16552.57,-19555.68,512
5.40625,-16526.96,-19529.61,512
5.408203,-16536.79,-19552.69,512
5.410156,-16532.94,-19560.2,512
5.412109,-16533.26,-19539.12,512
5.414062,-16551.63,-19578.49,512
5.416016,-16537.47,-19565.07,512
5.417969,-16558.82,-19570.3,512
5.419922,-16564.07,-19568.61,512
5.421875,-16541.64,-19553.74,512
5.423828,-16539.22,-19548.86,512
5.425781,-16520.73,-19529.6,512
5.427734,-16541.41,-19547.27,512
5.429688,-16547.44,-19552.41,512
5.431641,-16555.9,-19551.09,512
5.433594,-16552.03,-19545.77,512
5.435547,-16546.09,-19553.31,512
5.4375,-16551.89,-19564.19,512
5.439453,-16568.47,-19569.35,512
5.441406,-16550.43,-19552.15,512
5.443359,-16544.7,-19553.05,512
5.445312,-16542.22,-19565.01,512
5.447266,-16547.61,-19570.66,512
5.449219,-16562.91,-19571.51,512
5.451172,-16550.1,-19557.85,512
5.453125,-16539.97,-19559.97,512
5.455078,-16510.89,-19541.04,512
5.457031,-16518.43,-19567.35,512
5.458984,-16542.52,-19589.65,512
5.460938,-16511.43,-19575.7,512
5.462891,-16492.41,-19575.81,512
5.464844,-16496.84,-19572.83,512
5.466797,-16473.7,-19545.12,512
5.46875,-16442.7,-19543.28,512
5.470703,-16430.72,-19559.3,512
5.472656,-16401.47,-19549.91,512
5.474609,-16358.16,-19528.47,512
5.476562,-16395.92,-19559.58,512
5.478516,-16382.71,-19556.91,512
5.480469,-16379.64,-19533.49,512
5.482422,-16440.11,-19528.1,512
5.484375,-16487.11,-19532.16,512
5.486328,-16526.25,-19534.96,512
5.488281,-16509.94,-19505.9,512
5.490234,-16521.35,-19498.2,512
5.492188,-16572.75,-19517.4,512
5.494141,-16595.16,-19507.2,512
5.496094,-16641.63,-19518.02,512
5.498047,-16675.98,-19511.77,512
5.5,-16683.95,-19486.04,512
5.501953,-16682.93,-19511.88,512
5.503906,-16673.73,-19529.23,512
5.505859,-16688.04,-19546.44,512
5.507812,-16665.46,-19541.26,512
5.509766,-16654.44,-19527.36,512
5.511719,-16650,-19528.3,512
5.513672,-16623.43,-19520.88,512
5.515625,-16614.33,-19523.22,512
5.517578,-16601.06,-19522.98,512
5.519531,-16616.84,-19527.98,512
5.521484,-16618.91,-19542.69,512
5.523438,-16606.92,-19520.77,512
5.525391,-16595.8,-19512.93,512
5.527344,-16593.64,-19533.83,512
5.529297,-16582.32,-19538.94,512
5.53125,-16559.07,-19536.37,512
5.533203,-16546.21,-19525.56,512
5.535156,-16571.77,-19543.09,512
5.537109,-16556.87,-19541.02,512
5.539062,-16546.26,-19537.03,512
5.541016,-16545.29,-19523.4,512
5.542969,-16548.32,-19537.99,512
5.544922,-16542.49,-19548.08,512
5.546875,-16544.2,-19534.26,512
5.548828,-16555.52,-19542.48,512
5.550781,-16551.94,-19530.49,512
5.552734,-16552.78,-19540.38,512
5.554688,-16521.22,-19515.42,512
5.556641,-16528.5,-19519.73,512
5.558594,-16530.12,-19547.18,512
5.560547,-16522.81,-19532.87,512
5.5625,-16529.42,-19527.31,512
5.564453,-16503.66,-19514.17,512
5.566406,-16506.24,-19521.76,512
5.568359,-16506.99,-19507.82,512
5.570312,-16518.41,-19497.14,512
5.572266,-16522.14,-19504.65,512
5.574219,-16521.81,-19512.49,512
5.576172,-16532.1,-19517.86,512
5.578125,-16534.04,-19527.2,512
5.580078,-16515.73,-19532.01,512
5.582031,-16522.85,-19518.89,512
5.583984,-16533.66,-19533.62,512
5.585938,-16542.84,-19540.88,512
5.587891,-16544.52,-19542.52,512
5.589844,-16524.22,-19524.23,512
5.591797,-16528.49,-19531.66,512
5.59375,-16502.08,-19516.26,512
5.595703,-16515.74,-19522,512
5.597656,-16521.68,-19517.36,512
5.599609,-16513.33,-19515.91,512
5.601562,-16525.97,-19537.54,512
5.603516,-16538.91,-19541.79,512
5.605469,-16531.12,-19540.34,512
5.607422,-16531.26,-19540.53,512
5.609375,-16537.31,-19540.36,512
5.611328,-16532.89,-19544.3,512
5.613281,-16517.77,-19542.78,512
5.615234,-16514.62,-19545.21,512
5.617188,-16523.51,-19536.24,512
5.619141,-16542.6,-19552.86,512
5.621094,-16549.83,-19566.25,512
5.623047,-16527.86,-19548.86,512
5.625,-16515.31,-19527.48,512
5.626953,-16512.31,-19507.17,512
5.628906,-16520.27,-19519.5,512
5.630859,-16546.23,-19559.11,512
5.632812,-16544.71,-19545.6,512
5.634766,-16542.22,-19516.49,512
5.636719,-16522,-19514.79,512
5.638672,-16530,-19545.06,512
5.640625,-16512.17,-19540.32,512
5.642578,-16513.36,-19542.79,512
5.644531,-16521.21,-19550.86,512
5.646484,-16514.49,-19540.84,512
5.648438,-16533.27,-19551.38,512
5.650391,-16516.65,-19529.86,512
5.652344,-16503.4,-19515.57,512
5.654297,-16500.19,-19516.44,512
5.65625,-16468.71,-19497.31,512
5.658203,-16476.82,-19513.06,512
5.660156,-16522.14,-19531.05,512
5.662109,-16514.9,-19530.65,512
5.664062,-16489.91,-19514,512
5.666016,-16513.66,-19518.25,512
5.667969,-16500.19,-19519.88,512
5.669922,-16515.86,-19541.1,512
5.671875,-16526.03,-19559.04,512
5.673828,-16510.79,-19542.57,512
5.675781,-16503.03,-19531.36,512
5.677734,-16511.9,-19534.15,512
5.679688,-16493.79,-19532.26,512
5.681641,-16515.44,-19570.51,512
5.683594,-16515.4,-19575.89,512
5.685547,-16486.19,-19530.4,512
5.6875,-16517.22,-19545.45,512
5.689453,-16511.89,-19547.23,512
5.691406,-16505.25,-19550.74,512
5.693359,-16511.63,-19563.43,512
5.695312,-16487.08,-19549.33,512
5.697266,-16496.25,-19552.36,512
5.699219,-16506.37,-19558.54,512
5.701172,-16496.2,-19559.09,512
5.703125,-16491.93,-19560.09,512
5.705078,-16492.25,-19562.04,512
5.707031,-16494.07,-19563.06,512
5.708984,-16492.23,-19573.53,512
5.710938,-16496.03,-19582.36,512
5.712891,-16485.58,-19574.79,512
5.714844,-16489.93,-19578.24,512
5.716797,-16485.22,-19570.18,512
5.71875,-16486.95,-19575.6,512
5.720703,-16477.71,-19568.91,512
5.722656,-16468.12,-19561.94,512
5.724609,-16463.21,-19565.65,512
5.726562,-16464.98,-19570.06,512
5.728516,-16464.53,-19574.44,512
5.730469,-16472.42,-19589.54,512
5.732422,-16460.7,-19563.01,512
5.734375,-16475.95,-19583.19,512
5.736328,-16472.82,-19589.59,512
5.738281,-16464.64,-19573.72,512
5.740234,-16453.2,-19569.47,512
5.742188,-16450.78,-19571.95,512
5.744141,-16429.16,-19568.39,512
5.746094,-16440.67,-19580.5,512
5.748047,-16439.39,-19564.71,512
5.75,-16438.4,-19563.44,512
5.751953,-16445.93,-19572.54,512
5.753906,-16435.62,-19580.9,512
5.755859,-16449.05,-19589.62,512
5.757812,-16476.01,-19612.97,512
5.759766,-16474.71,-19602.8,512
5.761719,-16456.03,-19592.07,512
5.763672,-16444.48,-19588.83,512
5.765625,-16459.48,-19603.74,512
5.767578,-16455.14,-19580.54,512
5.769531,-16459.9,-19589.16,512
5.771484,-16459.87,-19598.65,512
5.773438,-16452.15,-19603.98,512
5.775391,-16462.48,-19605.81,512
5.777344,-16466.28,-19601.04,512
5.779297,-16479.02,-19607.97,512
5.78125,-16466.75,-19593.12,512
5.783203,-16484.05,-19593.9,512
5.785156,-16480.55,-19585.2,512
5.787109,-16476.24,-19575.28,512
5.789062,-16489.75,-19575.08,512
5.791016,-16478.44,-19569.91,512
5.792969,-16464.56,-19551.92,512
5.794922,-16474.76,-19561,512
5.796875,-16487.57,-19581.43,512
5.798828,-16487.93,-19555.32,512
5.800781,-16500.6,-19555.54,512
5.802734,-16510.02,-19574.35,512
5.804688,-16502.98,-19569.91,512
5.806641,-16519.48,-19564.62,512
5.808594,-16511.47,-19565.29,512
5.810547,-16500.56,-19557,512
5.8125,-16510.84,-19564.37,512
5.814453,-16524.74,-19560.7,512
5.816406,-16506.96,-19565.77,512
5.818359,-16510.02,-19578.63,512
5.820312,-16538.24,-19581.22,512
5.822266,-16527.87,-19574.46,512
5.824219,-16529,-19568.91,512
5.826172,-16536.67,-19554.25,512
5.828125,-16531.65,-19566.64,512
5.830078,-16528.41,-19573.97,512
5.832031,-16529.15,-19564.58,512
5.833984,-16532.91,-19563.14,512
5.835938,-16526.56,-19548.5,512
5.837891,-16533.14,-19549.67,512
5.839844,-16526.01,-19538.33,512
5.841797,-16539.66,-19549.34,512
5.84375,-16561.35,-19568.94,512
5.845703,-16551.65,-19558.31,512
5.847656,-16544.82,-19557.97,512
5.849609,-16544.64,-19563.56,512
5.851562,-16533.46,-19553.42,512
5.853516,-16537.37,-19537.03,512
5.855469,-16568.06,-19568.61,512
5.857422,-16542.35,-19548.62,512
5.859375,-16533.6,-19537.37,512
5.861328,-16541.79,-19558.66,512
5.863281,-16544.19,-19569.35,512
5.865234,-16548.97,-19563.13,512
5.867188,-16571.45,-19580.13,512
5.869141,-16555.26,-19563.01,512
5.871094,-16541.35,-19545.18,512
5.873047,-16533.54,-19555.36,512
5.875,-16539.56,-19555.62,512
5.876953,-16529.49,-19550.99,512
5.878906,-16552.72,-19565.86,512
5.880859,-16547.98,-19554.01,512
5.882812,-16538.99,-19552.99,512
5.884766,-16556.82,-19570.86,512
5.886719,-16545.71,-19558.31,512
5.888672,-16554.88,-19567.2,512
5.890625,-16541.81,-19575.62,512
5.892578,-16520.31,-19556.61,512
5.894531,-16538.25,-19566.85,512
5.896484,-16560.54,-19584.78,512
5.898438,-16549.99,-19571.33,512
5.900391,-16546.79,-19569.96,512
5.902344,-16547.6,-19574.69,512
5.904297,-16544.54,-19572.63,512
5.90625,-16536.52,-19569.28,512
5.908203,-16542.06,-19562.52,512
5.910156,-16547.68,-19565.53,512
5.912109,-16553.35,-19580.02,512
5.914062,-16539.66,-19564.44,512
5.916016,-16548.4,-19562.95,512
5.917969,-16551.23,-19559.52,512
5.919922,-16541.3,-19563.57,512
5.921875,-16541.67,-19560.2,512
5.923828,-16550.18,-19564.36,512
5.925781,-16556.31,-19570.38,512
5.927734,-16548.44,-19560.02,512
5.929688,-16559.99,-19570.48,512
5.931641,-16551.54,-19561.81,512
5.933594,-16533.01,-19529.33,512
5.935547,-16545,-19540.84,512
5.9375,-16559.24,-19544.85,512
5.939453,-16547.39,-19544.53,512
5.941406,-16533.22,-19555.8,512
5.943359,-16536.11,-19553.45,512
5.945312,-16552.42,-19568.73,512
5.947266,-16543.09,-19554.91,512
5.949219,-16546.9,-19550.21,512
5.951172,-16539.21,-19549.54,512
5.953125,-16525.65,-19538.92,512
5.955078,-16536.4,-19555.35,512
5.957031,-16545.27,-19552.31,512
5.958984,-16526.68,-19547.16,512
5.960938,-16537.99,-19568.84,512
5.962891,-16557.68,-19582.84,512
5.964844,-16547.82,-19567.08,512
5.966797,-16563.05,-19568.3,512
5.96875,-16564.27,-19570.97,512
5.970703,-16558.53,-19564.79,512
5.972656,-16552.25,-19547.15,512
5.974609,-16546.76,-19539.29,512
5.976562,-16535.06,-19543.68,512
5.978516,-16531.67,-19555.64,512
5.980469,-16547.29,-19565.62,512
5.982422,-16557.94,-19561.85,512
5.984375,-16541.5,-19553.4,512
5.986328,-16545.83,-19560.22,512
5.988281,-16540.68,-19557.11,512
5.990234,-16545.96,-19547.44,512
5.992188,-16561.24,-19556.01,512
5.994141,-16557.82,-19568.5,512
5.996094,-16546.66,-19554.24,512
5.998047,-16552.06,-19560.88,512
6,-16548.89,-19553.46,512
6.001953,-16547.66,-19556.16,512
6.003906,-16539.27,-19551.56,512
6.005859,-16548.71,-19550.61,512
6.007812,-16542.73,-19548.65,512
6.009766,-16548.54,-19551.66,512
6.011719,-16557.4,-19561.21,512
6.013672,-16543.38,-19545.68,512
6.015625,-16537.04,-19537.09,512
6.017578,-16526.97,-19539.8,512
6.019531,-16523.81,-19529.81,512
6.021484,-16531.6,-19534.62,512
6.023438,-16536.63,-19548.45,512
6.025391,-16522.38,-19529.37,512
6.027344,-16548.22,-19543.5,512
6.029297,-16552.75,-19547.79,512
6.03125,-16548.59,-19548.12,512
6.033203,-16545.34,-19551.8,512
6.035156,-16524.41,-19533.48,512
6.037109,-16539.24,-19546.61,512
6.039062,-16550.51,-19541.1,512
6.041016,-16549.56,-19537.83,512
6.042969,-16552.84,-19557.44,512
6.044922,-16542.37,-19546.94,512
6.046875,-16539.17,-19551.86,512
6.048828,-16532.86,-19552.63,512
6.050781,-16551.51,-19563.32,512
6.052734,-16551.94,-19554.5,512
6.054688,-16543.78,-19544.1,512
6.056641,-16551.73,-19556.9,512
6.058594,-16548.88,-19552.33,512
6.060547,-16549.45,-19553.6,512
6.0625,-16557.42,-19555.65,512
6.064453,-16549.72,-19531.95,512
6.066406,-16543.76,-19542.06,512
6.068359,-16543.69,-19546,512
6.070312,-16537.89,-19540.7,512
6.072266,-16551.24,-19533.58,512
6.074219,-16546.55,-19533.65,512
6.076172,-16539.52,-19538.58,512
6.078125,-16537.77,-19525.41,512
6.080078,-16540.25,-19540.6,512
6.082031,-16553.09,-19545.86,512
6.083984,-16551.11,-19538.12,512
6.085938,-16534.34,-19522.74,512
6.087891,-16549.16,-19530.11,512
6.089844,-16547.15,-19528.85,512
6.091797,-16530.03,-19516.88,512
6.09375,-16531.19,-19531.54,512
6.095703,-16545.93,-19538.73,512
6.097656,-16554.6,-19537.68,512
6.099609,-16543.29,-19528.58,512
6.101562,-16544.2,-19534.53,512
6.103516,-16550.37,-19541.9,512
6.105469,-16565.16,-19544.28,512
6.107422,-16566.71,-19557.11,512
6.109375,-16549.49,-19540.51,512
6.111328,-16556.67,-19553.07,512
6.113281,-16547.39,-19554.3,512
6.115234,-16557,-19558.34,512
6.117188,-16558.32,-19549.63,512
6.119141,-16541.84,-19545.09,512
6.121094,-16557.46,-19558.15,512
6.123047,-16546.51,-19554.27,512
6.125,-16546.45,-19549.89,512
6.126953,-16545.7,-19550.81,512
6.128906,-16545.12,-19544.45,512
6.130859,-16559.67,-19550.24,512
6.132812,-16551.04,-19542.24,512
6.134766,-16551.55,-19536.68,512
6.136719,-16577.22,-19548.61,512
6.138672,-16563.34,-19547.17,512
6.140625,-16555.77,-19547.35,512
6.142578,-16541.06,-19535.18,512
6.144531,-16544.84,-19537.78,512
6.146484,-16557.57,-19542.78,512
6.148438,-16573.78,-19556.38,512
6.150391,-16553.57,-19540.56,512
6.152344,-16543.59,-19532.39,512
6.154297,-16547.18,-19533.09,512
6.15625,-16558.19,-19538.45,512
6.158203,-16552.87,-19526.53,512
6.160156,-16537.93,-19524.75,512
6.162109,-16544.54,-19529.43,512
6.164062,-16550.33,-19531.24,512
6.166016,-16554.56,-19527.92,512
6.167969,-16555.51,-19533.62,512
6.169922,-16562.4,-19539.1,512
6.171875,-16550.52,-19533.55,512
6.173828,-16538.99,-19525.29,512
6.175781,-16534.12,-19529.08,512
6.177734,-16554.03,-19542.74,512
6.179688,-16556.82,-19538.15,512
6.181641,-16552.51,-19546.22,512
6.183594,-16550.91,-19538.15,512
6.185547,-16559.66,-19538.96,512
6.1875,-16564.11,-19543.3,512
6.189453,-16556.06,-19529.76,512
6.191406,-16556.4,-19533.74,512
6.193359,-16565.15,-19542.38,512
6.195312,-16569.59,-19541.52,512
6.197266,-16569.08,-19557.01,512
6.199219,-16569.29,-19551.61,512
6.201172,-16557.6,-19540.56,512
6.203125,-16552.16,-19539.81,512
6.205078,-16572.39,-19543.06,512
6.207031,-16577.2,-19549.98,512
6.208984,-16568.42,-19550.72,512
6.210938,-16569.54,-19561.62,512
6.212891,-16563.58,-19557.99,512
6.214844,-16552.7,-19538.14,512
6.216797,-16562.48,-19547.17,512
6.21875,-16574.39,-19554.9,512
6.220703,-16585.65,-19554.38,512
6.222656,-16573.84,-19543.2,512
6.224609,-16564.87,-19537.43,512
6.226562,-16560.45,-19541.39,512
6.228516,-16569.27,-19545.63,512
6.230469,-16567.07,-19539.49,512
6.232422,-16562.88,-19525.71,512
6.234375,-16573.84,-19529.22,512
6.236328,-16575.91,-19528.52,512
6.238281,-16564.27,-19520.59,512
6.240234,-16564.34,-19521.62,512
6.242188,-16552.71,-19511.45,512
6.244141,-16553.58,-19518.35,512
6.246094,-16547.68,-19507.71,512
6.248047,-16558.99,-19517.83,512
6.25,-16553.67,-19510.02,512
6.251953,-16554.54,-19503.81,512
6.253906,-16544.34,-19503.56,512
6.255859,-16547.25,-19500.54,512
6.257812,-16539.91,-19504.98,512
6.259766,-16520.54,-19503.67,512
6.261719,-16529.02,-19500.6,512
6.263672,-16546.63,-19515,512
6.265625,-16530.51,-19503.88,512
6.267578,-16529.8,-19499.21,512
6.269531,-16551.42,-19507.69,512
6.271484,-16569.69,-19525.87,512
6.273438,-16551.21,-19504.07,512
6.275391,-16558.24,-19506.21,512
6.277344,-16556.32,-19502.31,512
6.279297,-16540.73,-19503.87,512
6.28125,-16552.18,-19520.33,512
6.283203,-16551.46,-19508.8,512
6.285156,-16558,-19508.26,512
6.287109,-16542.87,-19492.17,512
6.289062,-16540.99,-19498.73,512
6.291016,-16539.79,-19509.97,512
6.292969,-16529.03,-19505.85,512
6.294922,-16535.74,-19511.2,512
6.296875,-16540.24,-19519.51,512
6.298828,-16538.09,-19520.81,512
6.300781,-16544.94,-19522.86,512
6.302734,-16522.74,-19510.18,512
6.304688,-16514.56,-19513.67,512
6.306641,-16518.03,-19513.42,512
6.308594,-16524.92,-19509.32,512
6.310547,-16523,-19512.88,512
6.3125,-16533.3,-19532.05,512
6.314453,-16550.4,-19535.39,512
6.316406,-16533.65,-19528.08,512
6.318359,-16514.87,-19523.92,512
6.320312,-16538.76,-19536.77,512
6.322266,-16544.5,-19530.02,512
6.324219,-16547.43,-19540.43,512
6.326172,-16542.86,-19542.67,512
6.328125,-16542.68,-19550.25,512
6.330078,-16542.84,-19543.86,512
6.332031,-16539.98,-19543.08,512
6.333984,-16532.29,-19539.39,512
6.335938,-16550.7,-19563.86,512
6.337891,-16542.07,-19552.61,512
6.339844,-16543.05,-19548.8,512
6.341797,-16542.03,-19552.61,512
6.34375,-16523.22,-19546.17,512
6.345703,-16525.3,-19550.16,512
6.347656,-16524.17,-19542.32,512
6.349609,-16531.28,-19541.79,512
6.351562,-16534.14,-19527.16,512
6.353516,-16534.99,-19530.31,512
6.355469,-16529.89,-19523.32,512
6.357422,-16512.55,-19502.25,512
6.359375,-16521.86,-19519.11,512
6.361328,-16531.32,-19521.37,512
6.363281,-16522.15,-19506.33,512
6.365234,-16535.63,-19519.46,512
6.367188,-16534.69,-19520.87,512
6.369141,-16525.83,-19506.4,512
6.371094,-16536.87,-19511.51,512
6.373047,-16548.77,-19511.42,512
6.375,-16544.48,-19505.79,512
6.376953,-16536.08,-19494.43,512
6.378906,-16545.91,-19507.7,512
6.380859,-16551.54,-19515.09,512
6.382812,-16571.17,-19523.96,512
6.384766,-16566.06,-19510.41,512
6.386719,-16553.53,-19513.25,512
6.388672,-16567.99,-19528.98,512
6.390625,-16552.5,-19525.06,512
6.392578,-16544.93,-19515.47,512
6.394531,-16559.31,-19524.06,512
6.396484,-16547.7,-19525.83,512
6.398438,-16547.38,-19520.76,512
6.400391,-16551.59,-19524.87,512
6.402344,-16571.42,-19527.59,512
6.404297,-16557.55,-19518.04,512
6.40625,-16544.47,-19513.73,512
6.408203,-16549,-19518.86,512
6.410156,-16572.56,-19546.24,512
6.412109,-16564.07,-19536.69,512
6.414062,-16547.79,-19513.88,512
6.416016,-16567.25,-19522.89,512
6.417969,-16567.99,-19522.92,512
6.419922,-16579.44,-19523.73,512
6.421875,-16572.55,-19525.98,512
6.423828,-16561.57,-19529.12,512
6.425781,-16560.63,-19512.99,512
6.427734,-16522.87,-19500.72,512
6.429688,-16537.26,-19508.88,512
6.431641,-16588.77,-19532.4,512
6.433594,-16573.08,-19524.84,512
6.435547,-16572.65,-19520.56,512
6.4375,-16559.17,-19510.42,512
6.439453,-16552.47,-19504.53,512
6.441406,-16573.18,-19520.54,512
6.443359,-16573.65,-19518.45,512
6.445312,-16570.03,-19524.14,512
6.447266,-16575.06,-19531.81,512
6.449219,-16567.29,-19524.79,512
6.451172,-16566.25,-19529.29,512
6.453125,-16572.82,-19538.39,512
6.455078,-16570.27,-19528.38,512
6.457031,-16558.15,-19522.83,512
6.458984,-16549.01,-19518.99,512
6.460938,-16567.57,-19528.83,512
6.462891,-16570.3,-19542.46,512
6.464844,-16566.17,-19537.73,512
6.466797,-16568.08,-19548.44,512
6.46875,-16571.2,-19536.43,512
6.470703,-16574.47,-19535.42,512
6.472656,-16575.6,-19538.16,512
6.474609,-16555.68,-19524.36,512
6.476562,-16560.28,-19537.98,512
6.478516,-16563.39,-19537.5,512
6.480469,-16559.83,-19534.31,512
6.482422,-16569.27,-19537.25,512
6.484375,-16580.22,-19547.28,512
6.486328,-16555.34,-19529.94,512
6.488281,-16567.04,-19550.44,512
6.490234,-16560.69,-19533.76,512
6.492188,-16547.36,-19529.85,512
6.494141,-16554.39,-19550.68,512
6.496094,-16534.88,-19551.97,512
6.498047,-16522.14,-19540.07,512
6.5,-16523.89,-19551.63,512
6.501953,-16516.24,-19547.42,512
6.503906,-16501.05,-19542.01,512
6.505859,-16507.72,-19552.36,512
6.507812,-16468.74,-19546.38,512
6.509766,-16439.25,-19531.72,512
6.511719,-16412.97,-19532.71,512
6.513672,-16374.77,-19526.49,512
6.515625,-16367.49,-19534.27,512
6.517578,-16411.62,-19552.48,512
6.519531,-16440.75,-19545.91,512
6.521484,-16475.12,-19523.58,512
6.523438,-16470.96,-19512.05,512
6.525391,-16507.93,-19510.39,512
6.527344,-16556.01,-19511.95,512
6.529297,-16569.16,-19505.08,512
6.53125,-16602.47,-19508.84,512
6.533203,-16638.25,-19512.78,512
6.535156,-16654.79,-19512.95,512
6.537109,-16676.33,-19512.06,512
6.539062,-16687.89,-19519.43,512
6.541016,-16685.68,-19518.3,512
6.542969,-16667.5,-19515.75,512
6.544922,-16668.85,-19518.75,512
6.546875,-16665.91,-19533.51,512
6.548828,-16652.84,-19532.28,512
6.550781,-16659.65,-19537.41,512
6.552734,-16632.65,-19535.5,512
6.554688,-16611.52,-19516.87,512
6.556641,-16613.5,-19523.23,512
6.558594,-16590.52,-19510.1,512
6.560547,-16585.48,-19526.96,512
6.5625,-16585.57,-19528.43,512
6.564453,-16567.88,-19527.65,512
6.566406,-16572.13,-19523.49,512
6.568359,-16559.81,-19528.26,512
6.570312,-16541.04,-19515.64,512
6.572266,-16548.17,-19518.93,512
6.574219,-16545.66,-19525.56,512
6.576172,-16540.42,-19527.43,512
6.578125,-16528.27,-19518.94,512
6.580078,-16527.22,-19522.02,512
6.582031,-16537.19,-19524.02,512
6.583984,-16528.33,-19511.21,512
6.585938,-16537.53,-19522.82,512
6.587891,-16539.7,-19530.89,512
6.589844,-16540.41,-19531.7,512
6.591797,-16529.06,-19535.28,512
6.59375,-16517.94,-19521.39,512
6.595703,-16525.29,-19527.24,512
6.597656,-16517.42,-19520.86,512
6.599609,-16521.11,-19529.06,512
6.601562,-16529.25,-19532.39,512
6.603516,-16526.42,-19523.71,512
6.605469,-16528.55,-19527.63,512
6.607422,-16511.93,-19530.3,512
6.609375,-16512.46,-19521.08,512
6.611328,-16515.03,-19528.28,512
6.613281,-16506.13,-19527.56,512
6.615234,-16529.68,-19526.79,512
6.617188,-16521.57,-19526.6,512
6.619141,-16528.71,-19527.9,512
6.621094,-16532.85,-19528.67,512
6.623047,-16523.53,-19521.62,512
6.625,-16522.13,-19522.86,512
6.626953,-16522.21,-19525.04,512
6.628906,-16519.1,-19522.21,512
6.630859,-16513.56,-19519.32,512
6.632812,-16514.79,-19511.69,512
6.634766,-16522.89,-19527.29,512
6.636719,-16528.36,-19520.2,512
6.638672,-16525.11,-19515.67,512
6.640625,-16527.15,-19518.76,512
6.642578,-16517.95,-19518.8,512
6.644531,-16520.17,-19516.11,512
6.646484,-16518.13,-19520.28,512
6.648438,-16515,-19513.74,512
6.650391,-16518.06,-19507.44,512
6.652344,-16531.24,-19510.71,512
6.654297,-16521.09,-19514.89,512
6.65625,-16518.49,-19510.95,512
6.658203,-16498.38,-19498.83,512
6.660156,-16517.56,-19512.45,512
6.662109,-16532.6,-19502.21,512
6.664062,-16531.61,-19498.35,512
6.666016,-16532.62,-19505.86,512
6.667969,-16514.08,-19494.73,512
6.669922,-16515.35,-19492.29,512
6.671875,-16511.75,-19487.43,512
6.673828,-16505.58,-19487.67,512
6.675781,-16513.94,-19502.24,512
6.677734,-16516.34,-19516.03,512
6.679688,-16510.55,-19510.62,512
6.681641,-16505.49,-19502.12,512
6.683594,-16510.28,-19507.58,512
6.685547,-16521.77,-19514.23,512
6.6875,-16519.85,-19509.69,512
6.689453,-16507.95,-19506.1,512
6.691406,-16517.96,-19521.9,512
6.693359,-16499.24,-19518.92,512
6.695312,-16491.75,-19515.73,512
6.697266,-16499.24,-19522.77,512
6.699219,-16489.06,-19508.46,512
6.701172,-16503.29,-19509.14,512
6.703125,-16511.61,-19512.84,512
6.705078,-16506.01,-19523.51,512
6.707031,-16498.77,-19522.34,512
6.708984,-16490.74,-19513.68,512
6.710938,-16497.85,-19526.33,512
6.712891,-16490.76,-19521.37,512
6.714844,-16487.44,-19521.15,512
6.716797,-16490.68,-19521.95,512
6.71875,-16503.81,-19535.01,512
6.720703,-16499.74,-19528.6,512
6.722656,-16490.79,-19516.3,512
6.724609,-16489.32,-19522.4,512
6.726562,-16485.72,-19521.99,512
6.728516,-16491.57,-19526.08,512
6.730469,-16491.67,-19528.1,512
6.732422,-16481.24,-19520.54,512
6.734375,-16499.29,-19537.25,512
6.736328,-16487.8,-19527.38,512
6.738281,-16479.64,-19534.26,512
6.740234,-16482.45,-19540.59,512
6.742188,-16485.62,-19546.17,512
6.744141,-16485.54,-19559.14,512
6.746094,-16480.14,-19557.74,512
6.748047,-16469.98,-19539.69,512
6.75,-16473.13,-19548.96,512
6.751953,-16465.76,-19547.22,512
6.753906,-16467.3,-19546.78,512
6.755859,-16474.96,-19555.01,512
6.757812,-16467.6,-19552.22,512
6.759766,-16469.74,-19562.34,512
6.761719,-16460.07,-19554.48,512
6.763672,-16460.48,-19555.33,512
6.765625,-16463.74,-19557.14,512
6.767578,-16465.39,-19553.6,512
6.769531,-16460.1,-19558.29,512
6.771484,-16463.4,-19565.4,512
6.773438,-16457.36,-19564.71,512
6.775391,-16455.95,-19568.88,512
6.777344,-16473.96,-19585.4,512
6.779297,-16464,-19580.4,512
6.78125,-16463.66,-19570.65,512
6.783203,-16467.13,-19575.54,512
6.785156,-16462.48,-19572.87,512
6.787109,-16457.25,-19572.63,512
6.789062,-16455.4,-19563.94,512
6.791016,-16441.29,-19554.6,512
6.792969,-16440.55,-19562.52,512
6.794922,-16439.21,-19561.49,512
6.796875,-16431.21,-19553.67,512
6.798828,-16425.95,-19558.68,512
6.800781,-16443.02,-19564.98,512
6.802734,-16440.65,-19555.05,512
6.804688,-16435.37,-19552.11,512
6.806641,-16434.21,-19550.54,512
6.808594,-16436.46,-19549.62,512
6.810547,-16431.58,-19542.22,512
6.8125,-16429.31,-19539.15,512
6.814453,-16431.21,-19541.43,512
6.816406,-16438.85,-19551.02,512
6.818359,-16421.28,-19531.81,512
6.820312,-16435.8,-19539.45,512
6.822266,-16449.95,-19555.83,512
6.824219,-16440.26,-19545.96,512
6.826172,-16458.38,-19558.09,512
6.828125,-16468.11,-19562.89,512
6.830078,-16460.28,-19560.14,512
6.832031,-16471.38,-19564.76,512
6.833984,-16463.94,-19548.62,512
6.835938,-16472.05,-19547.87,512
6.837891,-16488.21,-19553.18,512
6.839844,-16472.52,-19546.02,512
6.841797,-16476.44,-19538.79,512
6.84375,-16495.28,-19549.87,512
6.845703,-16485.53,-19537.31,512
6.847656,-16483.05,-19530.39,512
6.849609,-16490.36,-19525.57,512
6.851562,-16500.58,-19527.83,512
6.853516,-16502.68,-19536.61,512
6.855469,-16500.76,-19528.79,512
6.857422,-16495.11,-19527.52,512
6.859375,-16492.22,-19520.86,512
6.861328,-16500.99,-19523.75,512
6.863281,-16492.56,-19518.46,512
6.865234,-16497.57,-19513.19,512
6.867188,-16500.25,-19517.69,512
6.869141,-16509.91,-19525.07,512
6.871094,-16526.62,-19532.04,512
6.873047,-16529.73,-19535.83,512
6.875,-16528.09,-19536.46,512
6.876953,-16526.06,-19538.01,512
6.878906,-16521.94,-19535.74,512
6.880859,-16517.62,-19530.82,512
6.882812,-16523.96,-19531.05,512
6.884766,-16536.2,-19533.57,512
6.886719,-16524.43,-19532.46,512
6.888672,-16521.81,-19526.84,512
6.890625,-16522.87,-19531.69,512
6.892578,-16516.04,-19530.77,512
6.894531,-16510.96,-19528.83,512
6.896484,-16516.8,-19531.39,512
6.898438,-16522.34,-19539.52,512
6.900391,-16513.26,-19532.96,512
6.902344,-16517.57,-19538.21,512
6.904297,-16525.69,-19536.43,512
6.90625,-16528.2,-19550.67,512
6.908203,-16520.36,-19549.67,512
6.910156,-16513.01,-19538.36,512
6.912109,-16514.38,-19535.44,512
6.914062,-16527.78,-19550.95,512
6.916016,-16525.52,-19549.27,512
6.917969,-16526.25,-19549.34,512
6.919922,-16522.26,-19544.34,512
6.921875,-16482.94,-19531.46,512
6.923828,-16479.63,-19531.18,512
6.925781,-16533.51,-19540.72,512
6.927734,-16538.75,-19547.67,512
6.929688,-16527.01,-19551.46,512
6.931641,-16520.3,-19542.22,512
6.933594,-16507.14,-19544.22,512
6.935547,-16510.94,-19544.66,512
6.9375,-16528.43,-19540.89,512
6.939453,-16517.96,-19533.88,512
6.941406,-16516.4,-19546.79,512
6.943359,-16527.59,-19540.23,512
6.945312,-16542.39,-19533.38,512
6.947266,-16540.73,-19547.15,512
6.949219,-16504.17,-19530.59,512
6.951172,-16487.65,-19516.37,512
6.953125,-16523.33,-19529.71,512
6.955078,-16529.21,-19540.41,512
6.957031,-16529.12,-19545.34,512
6.958984,-16513.86,-19539.62,512
6.960938,-16511.68,-19531.69,512
6.962891,-16529.31,-19533.99,512
6.964844,-16544.18,-19556.71,512
6.966797,-16517.91,-19544.92,512
6.96875,-16517.43,-19553.94,512
6.970703,-16536.41,-19557.64,512
6.972656,-16530.59,-19554.07,512
6.974609,-16547.29,-19571.69,512
6.976562,-16538.27,-19569.92,512
6.978516,-16533.94,-19573.28,512
6.980469,-16531.69,-19570.69,512
6.982422,-16516.06,-19554.34,512
6.984375,-16529.43,-19561.85,512
6.986328,-16521.27,-19563.62,512
6.988281,-16508.37,-19553.07,512
6.990234,-16522.73,-19557.8,512
6.992188,-16540.45,-19574.06,512
6.994141,-16532.28,-19566.88,512
6.996094,-16521.03,-19562.66,512
6.998047,-16526.49,-19574.39,512
7,-16532.25,-19582.14,512
7.001953,-16528.09,-19582,512
7.003906,-16525.8,-19585.96,512
7.005859,-16515.09,-19570.25,512
7.007812,-16528.58,-19581.23,512
7.009766,-16540.11,-19590.64,512
7.011719,-16533.08,-19580.18,512
7.013672,-16506.89,-19564.11,512
7.015625,-16509.54,-19557.23,512
7.017578,-16530.52,-19568.57,512
7.019531,-16537.98,-19586.67,512
7.021484,-16530.82,-19574.83,512
7.023438,-16518.61,-19571.52,512
7.025391,-16533.02,-19575.73,512
7.027344,-16541.81,-19586.7,512
7.029297,-16527.48,-19574.33,512
7.03125,-16526.64,-19572.96,512
7.033203,-16535,-19585.82,512
7.035156,-16528.74,-19568.88,512
7.037109,-16518.94,-19561.07,512
7.039062,-16536.28,-19575.25,512
7.041016,-16520.96,-19563.27,512
7.042969,-16527.7,-19553.26,512
7.044922,-16537.72,-19559.41,512
7.046875,-16538.6,-19572.01,512
7.048828,-16533.25,-19560.48,512
7.050781,-16537.99,-19574.98,512
7.052734,-16538.76,-19577.13,512
7.054688,-16535.55,-19569.93,512
7.056641,-16547.76,-19579.36,512
7.058594,-16539.73,-19572.69,512
7.060547,-16543.65,-19579.89,512
7.0625,-16525.05,-19575.43,512
7.064453,-16525.94,-19577.86,512
7.066406,-16528.56,-19568.71,512
7.068359,-16531.16,-19566.21,512
7.070312,-16526.21,-19561.27,512
7.072266,-16515.31,-19560.01,512
7.074219,-16516.88,-19562.03,512
7.076172,-16518.88,-19561.18,512
7.078125,-16518.99,-19560.8,512
7.080078,-16530.25,-19563.76,512
7.082031,-16522.59,-19561.06,512
7.083984,-16521.21,-19559.78,512
7.085938,-16528.91,-19564.81,512
7.087891,-16533.77,-19571.7,512
7.089844,-16529.42,-19567.08,512
7.091797,-16525.35,-19564.88,512
7.09375,-16530.17,-19573.21,512
7.095703,-16523.87,-19568.43,512
7.097656,-16525.96,-19575.18,512
7.099609,-16526.17,-19569.3,512
7.101562,-16524.85,-19565.52,512
7.103516,-16521.52,-19561.12,512
7.105469,-16535.51,-19569.49,512
7.107422,-16530.21,-19571.59,512
7.109375,-16532.39,-19567.73,512
7.111328,-16544.88,-19575.72,512
7.113281,-16539.98,-19574.66,512
7.115234,-16544.14,-19580.36,512
7.117188,-16548.76,-19586.37,512
7.119141,-16543.67,-19573.85,512
7.121094,-16558.68,-19585.41,512
7.123047,-16556.08,-19584.22,512
7.125,-16537.48,-19576.19,512
7.126953,-16545.18,-19587.98,512
7.128906,-16552.45,-19584.45,512
7.130859,-16549.39,-19593.48,512
7.132812,-16543.7,-19592.52,512
7.134766,-16551.15,-19577.94,512
7.136719,-16558.48,-19586.69,512
7.138672,-16552.68,-19581.1,512
7.140625,-16538.14,-19562.75,512
7.142578,-16544.51,-19570.49,512
7.144531,-16551.4,-19573.21,512
7.146484,-16535.22,-19559.56,512
7.148438,-16536.95,-19567.38,512
