timestamp,exg1,exg2,srate
0,-16566.07,-20865.58,512
0.001953125,-16563.08,-20847.23,512
0.00390625,-16564.82,-20857.74,512
0.005859375,-16550.09,-20831.9,512
0.0078125,-16515.53,-20810.68,512
0.009765625,-16552.53,-20847.95,512
0.01171875,-16588.88,-20862.18,512
0.01367188,-16581.72,-20864.03,512
0.015625,-16570.02,-20879.65,512
0.01757812,-16572.93,-20885.74,512
0.01953125,-16562.75,-20870.34,512
0.02148438,-16549.1,-20846.88,512
0.0234375,-16572.55,-20871.79,512
0.02539062,-16594.4,-20907.45,512
0.02734375,-16576.05,-20882.95,512
0.02929688,-16568.7,-20848.85,512
0.03125,-16569.84,-20880.77,512
0.03320312,-16556.85,-20863.19,512
0.03515625,-16570.4,-20886.94,512
0.03710938,-16575.52,-20890.27,512
0.0390625,-16576.68,-20876.7,512
0.04101562,-16556.48,-20882.06,512
0.04296875,-16526.89,-20860.64,512
0.04492188,-16516.75,-20867.46,512
0.046875,-16565.55,-20874.65,512
0.04882812,-16561.16,-20874.26,512
0.05078125,-16544.59,-20878.66,512
0.05273438,-16524.22,-20867.68,512
0.0546875,-16554.11,-20878.38,512
0.05664062,-16547.07,-20861.73,512
0.05859375,-16474.58,-20828.73,512
0.06054688,-16527.33,-20846.2,512
0.0625,-16560.79,-20854.88,512
0.06445312,-16542.62,-20842.08,512
0.06640625,-16571.75,-20881.55,512
0.06835938,-16571.62,-20884.5,512
0.0703125,-16580.48,-20883.39,512
0.07226562,-16556.46,-20871.56,512
0.07421875,-16567.08,-20861.83,512
0.07617188,-16564.19,-20843.66,512
0.078125,-16548.53,-20837.94,512
0.08007812,-16571.88,-20869.96,512
0.08203125,-16598.8,-20880.55,512
0.08398438,-16568.87,-20846.98,512
0.0859375,-16577.33,-20852.32,512
0.08789062,-16588.31,-20874.22,512
0.08984375,-16594.45,-20874.34,512
0.09179688,-16573.45,-20830.54,512
0.09375,-16591.88,-20903.12,512
0.09570312,-16617.49,-20873.01,512
0.09765625,-16600.61,-20885.66,512
0.09960938,-16584.23,-20884.65,512
0.1015625,-16585.07,-20880.2,512
0.1035156,-16561.65,-20872.14,512
0.1054688,-16575.29,-20871.61,512
0.1074219,-16570.62,-20854.95,512
0.109375,-16579.26,-20897.57,512
0.1113281,-16567.24,-20862.12,512
0.1132812,-16595.53,-20864.58,512
0.1152344,-16589.07,-20869.08,512
0.1171875,-16575.74,-20880.66,512
0.1191406,-16564.02,-20870.13,512
0.1210938,-16561.11,-20866.14,512
0.1230469,-16580.96,-20889.8,512
0.125,-16587.98,-20853.93,512
0.1269531,-16572.09,-20863.94,512
0.1289062,-16584.14,-20877.27,512
0.1308594,-16551.92,-20806.36,512
0.1328125,-16584.65,-20860.72,512
0.1347656,-16577.11,-20876.26,512
0.1367188,-16551.05,-20858.45,512
0.1386719,-16562.56,-20879.45,512
0.140625,-16527.28,-20847.26,512
0.1425781,-16584.09,-20859.86,512
0.1445312,-16615.36,-20868.53,512
0.1464844,-16604.01,-20881.95,512
0.1484375,-16582.01,-20873.67,512
0.1503906,-16531.42,-20845.29,512
0.1523438,-16567.46,-20867.05,512
0.1542969,-16613.29,-20889.51,512
0.15625,-16592.22,-20845.13,512
0.1582031,-16579.56,-20860.07,512
0.1601562,-16610.46,-20891.72,512
0.1621094,-16599.51,-20873.8,512
0.1640625,-16590.93,-20882.87,512
0.1660156,-16586.93,-20862.16,512
0.1679688,-16598.12,-20889.05,512
0.1699219,-16596.99,-20897.97,512
0.171875,-16551.07,-20870.77,512
0.1738281,-16563.96,-20855.3,512
0.1757812,-16581.73,-20884.15,512
0.1777344,-16598.29,-20900.93,512
0.1796875,-16580.29,-20875.16,512
0.1816406,-16586.7,-20879.62,512
0.1835938,-16581.12,-20855.29,512
0.1855469,-16595.87,-20866.95,512
0.1875,-16561.28,-20857.7,512
0.1894531,-16561.09,-20850.37,512
0.1914062,-16560.1,-20875.15,512
0.1933594,-16554.81,-20899.55,512
0.1953125,-16575,-20880.12,512
0.1972656,-16559.28,-20856.63,512
0.1992188,-16576.41,-20878.41,512
0.2011719,-16557.53,-20886.88,512
0.203125,-16519.12,-20877.53,512
0.2050781,-16551.45,-20890.07,512
0.2070312,-16540.59,-20893,512
0.2089844,-16522.09,-20869.47,512
0.2109375,-16514.13,-20855.93,512
0.2128906,-16485.58,-20847.65,512
0.2148438,-16483.86,-20858,512
0.2167969,-16480.86,-20856.62,512
0.21875,-16432.12,-20824.72,512
0.2207031,-16426.28,-20836.77,512
0.2226562,-16424.07,-20857.54,512
0.2246094,-16449.96,-20855.3,512
0.2265625,-16475.21,-20846.48,512
0.2285156,-16455.71,-20810.62,512
0.2304688,-16498.23,-20812.12,512
0.2324219,-16515.59,-20819.02,512
0.234375,-16517.04,-20825.77,512
0.2363281,-16546.58,-20818.29,512
0.2382812,-16599.5,-20821.17,512
0.2402344,-16628.75,-20822.66,512
0.2421875,-16670.5,-20821.17,512
0.2441406,-16681.44,-20812.39,512
0.2460938,-16702.94,-20814.3,512
0.2480469,-16690.82,-20812.74,512
0.25,-16683.31,-20808.19,512
0.2519531,-16652.4,-20804.18,512
0.2539062,-16668.28,-20841.03,512
0.2558594,-16677.93,-20876.44,512
0.2578125,-16645.43,-20852.02,512
0.2597656,-16646.75,-20854.27,512
0.2617188,-16623.88,-20826.82,512
0.2636719,-16650.32,-20845.23,512
0.265625,-16578.56,-20825.11,512
0.2675781,-16587.65,-20818.68,512
0.2695312,-16606.77,-20833.68,512
0.2714844,-16610.21,-20839.71,512
0.2734375,-16616.68,-20851.38,512
0.2753906,-16600.23,-20817.74,512
0.2773438,-16595.86,-20841.02,512
0.2792969,-16579.14,-20858.15,512
0.28125,-16570.09,-20836.56,512
0.2832031,-16572.03,-20852.93,512
0.2851562,-16561.74,-20833.17,512
0.2871094,-16534.87,-20826.97,512
0.2890625,-16548.89,-20842.96,512
0.2910156,-16580.46,-20859.01,512
0.2929688,-16552.29,-20833.35,512
0.2949219,-16546.48,-20825.98,512
0.296875,-16573.19,-20827.87,512
0.2988281,-16556.52,-20829.21,512
0.3007812,-16532.26,-20839.04,512
0.3027344,-16542.01,-20837.27,512
0.3046875,-16547.48,-20859.47,512
0.3066406,-16580.88,-20866.05,512
0.3085938,-16565.74,-20827.38,512
0.3105469,-16560.51,-20829.88,512
0.3125,-16578.9,-20868.6,512
0.3144531,-16575.04,-20858.05,512
0.3164062,-16577.2,-20861.79,512
0.3183594,-16558.51,-20847.2,512
0.3203125,-16555.02,-20851.72,512
0.3222656,-16572.78,-20861.19,512
0.3242188,-16564.59,-20855.33,512
0.3261719,-16560.39,-20856.91,512
0.328125,-16549.12,-20840.39,512
0.3300781,-16536.54,-20831.62,512
0.3320312,-16534.97,-20825.11,512
0.3339844,-16556.56,-20842.73,512
0.3359375,-16550.11,-20842.09,512
0.3378906,-16557.11,-20837.54,512
0.3398438,-16537.42,-20846.9,512
0.3417969,-16561.37,-20876.61,512
0.34375,-16560.87,-20860.22,512
0.3457031,-16549.34,-20860.73,512
0.3476562,-16549.24,-20855.46,512
0.3496094,-16554.29,-20858.51,512
0.3515625,-16517.75,-20834.91,512
0.3535156,-16524.29,-20845.15,512
0.3554688,-16543.21,-20825.61,512
0.3574219,-16568.92,-20858.04,512
0.359375,-16560.34,-20859.22,512
0.3613281,-16524.45,-20852.17,512
0.3632812,-16552.09,-20874.77,512
0.3652344,-16538.8,-20853.36,512
0.3671875,-16531.34,-20852.54,512
0.3691406,-16534.62,-20859.54,512
0.3710938,-16533.05,-20848.76,512
0.3730469,-16540.94,-20866.5,512
0.375,-16560.68,-20882.01,512
0.3769531,-16552.83,-20882.45,512
0.3789062,-16566.91,-20886.44,512
0.3808594,-16549.61,-20855.69,512
0.3828125,-16525.25,-20851.8,512
0.3847656,-16526.43,-20848.98,512
0.3867188,-16523.37,-20833.17,512
0.3886719,-16543.4,-20876.04,512
0.390625,-16533.11,-20897.22,512
0.3925781,-16516.9,-20876.45,512
0.3945312,-16532.14,-20879.43,512
0.3964844,-16538.67,-20883.1,512
0.3984375,-16567.86,-20886.22,512
0.4003906,-16558.34,-20883.96,512
0.4023438,-16547.93,-20875.29,512
0.4042969,-16562.16,-20877.37,512
0.40625,-16551.9,-20877,512
0.4082031,-16509.07,-20852.34,512
0.4101562,-16516.81,-20872.51,512
0.4121094,-16522.05,-20872.43,512
0.4140625,-16528.27,-20873.36,512
0.4160156,-16479.71,-20859.99,512
0.4179688,-16535.54,-20890.8,512
0.4199219,-16532.74,-20851.54,512
0.421875,-16556.3,-20868.51,512
0.4238281,-16549.04,-20889.46,512
0.4257812,-16553.73,-20896.92,512
0.4277344,-16550.71,-20903.73,512
0.4296875,-16533.1,-20888.63,512
0.4316406,-16537.06,-20891.02,512
0.4335938,-16528.43,-20882.2,512
0.4355469,-16513.48,-20872.63,512
0.4375,-16524.86,-20871.62,512
0.4394531,-16521.71,-20869.43,512
0.4414062,-16524.08,-20872.15,512
0.4433594,-16514.72,-20877.51,512
0.4453125,-16504.18,-20891.6,512
0.4472656,-16510.54,-20886.27,512
0.4492188,-16484.21,-20847.84,512
0.4511719,-16517.93,-20879.11,512
0.453125,-16533.06,-20900.66,512
0.4550781,-16509.5,-20902.01,512
0.4570312,-16470,-20854.34,512
0.4589844,-16498.99,-20889.82,512
0.4609375,-16518.5,-20891.66,512
0.4628906,-16523.32,-20883.47,512
0.4648438,-16528.96,-20897.12,512
0.4667969,-16508.8,-20893.39,512
0.46875,-16500.78,-20880.32,512
0.4707031,-16485.84,-20873.51,512
0.4726562,-16531.17,-20901.22,512
0.4746094,-16528.57,-20910.84,512
0.4765625,-16517.52,-20904.74,512
0.4785156,-16512.97,-20903.84,512
0.4804688,-16501.08,-20898.77,512
0.4824219,-16503.62,-20884.42,512
0.484375,-16497.14,-20887.99,512
0.4863281,-16510.29,-20931.8,512
0.4882812,-16504.8,-20925.83,512
0.4902344,-16489.33,-20900.54,512
0.4921875,-16465.75,-20897.29,512
0.4941406,-16441.78,-20894.21,512
0.4960938,-16505.79,-20905.42,512
0.4980469,-16474.92,-20894.47,512
0.5,-16458.3,-20869.96,512
0.5019531,-16515.22,-20905.97,512
0.5039062,-16502.62,-20889.92,512
0.5058594,-16477.34,-20875.03,512
0.5078125,-16496.13,-20877.17,512
0.5097656,-16490.3,-20879.88,512
0.5117188,-16496.54,-20923.62,512
0.5136719,-16498.05,-20904.45,512
0.515625,-16492.44,-20892.44,512
0.5175781,-16523.28,-20921.13,512
0.5195312,-16508.42,-20912.71,512
0.5214844,-16484.29,-20900.78,512
0.5234375,-16510.9,-20918.63,512
0.5253906,-16495.31,-20890.13,512
0.5273438,-16500.26,-20893.38,512
0.5292969,-16518.94,-20877.38,512
0.53125,-16524.1,-20865.36,512
0.5332031,-16524.73,-20888.99,512
0.5351562,-16533.75,-20901.77,512
0.5371094,-16528.72,-20911.08,512
0.5390625,-16527.21,-20893.95,512
0.5410156,-16531.93,-20886.34,512
0.5429688,-16544.31,-20892.49,512
0.5449219,-16529.77,-20877.92,512
0.546875,-16536.75,-20894.4,512
0.5488281,-16536.75,-20879.7,512
0.5507812,-16547.25,-20865.86,512
0.5527344,-16577.74,-20902.33,512
0.5546875,-16574.49,-20898.92,512
0.5566406,-16581.16,-20894.66,512
0.5585938,-16579.57,-20894.81,512
0.5605469,-16561.86,-20892.81,512
0.5625,-16543.27,-20878.36,512
0.5644531,-16515.88,-20858.24,512
0.5664062,-16582.77,-20883.6,512
0.5683594,-16566.24,-20902.52,512
0.5703125,-16558.44,-20869.87,512
0.5722656,-16573.28,-20870.59,512
0.5742188,-16578.39,-20891.62,512
0.5761719,-16584.35,-20899.6,512
0.578125,-16578.97,-20892.28,512
0.5800781,-16568.77,-20859.52,512
0.5820312,-16568.43,-20866.33,512
0.5839844,-16586.84,-20880.9,512
0.5859375,-16567.09,-20888.66,512
0.5878906,-16590.55,-20895.42,512
0.5898438,-16541.62,-20880.47,512
0.5917969,-16544.23,-20881.13,512
0.59375,-16595.22,-20882.96,512
0.5957031,-16584.73,-20907.4,512
0.5976562,-16585.88,-20898.6,512
0.5996094,-16587.04,-20887.49,512
0.6015625,-16572.33,-20882.54,512
0.6035156,-16574.11,-20880.97,512
0.6054688,-16559.66,-20868.86,512
0.6074219,-16557.42,-20890.91,512
0.609375,-16555.42,-20864.37,512
0.6113281,-16577.87,-20877.25,512
0.6132812,-16570.39,-20864.57,512
0.6152344,-16543.95,-20853.67,512
0.6171875,-16572.04,-20867.79,512
0.6191406,-16568.91,-20859.83,512
0.6210938,-16560.8,-20854.39,512
0.6230469,-16597.24,-20868.69,512
0.625,-16573.28,-20866.46,512
0.6269531,-16580.77,-20893.55,512
0.6289062,-16586.49,-20883.57,512
0.6308594,-16557.66,-20847.71,512
0.6328125,-16564.96,-20864.47,512
0.6347656,-16582.16,-20903.06,512
0.6367188,-16564.98,-20877.51,512
0.6386719,-16568.54,-20870.46,512
0.640625,-16553.35,-20850.25,512
0.6425781,-16536.73,-20864.41,512
0.6445312,-16569.74,-20887.02,512
0.6464844,-16559.85,-20871.39,512
0.6484375,-16556.54,-20871.38,512
0.6503906,-16550.2,-20858.81,512
0.6523438,-16568.4,-20873.14,512
0.6542969,-16565.46,-20874.16,512
0.65625,-16559.43,-20878.35,512
0.6582031,-16554.62,-20879.34,512
0.6601562,-16563.01,-20867.14,512
0.6621094,-16561.36,-20862.26,512
0.6640625,-16559.65,-20853.92,512
0.6660156,-16547.25,-20857.78,512
0.6679688,-16530.72,-20858.39,512
0.6699219,-16533.36,-20859.68,512
0.671875,-16529.81,-20855.79,512
0.6738281,-16551.94,-20870.79,512
0.6757812,-16569.03,-20876.85,512
0.6777344,-16575.6,-20862.65,512
0.6796875,-16579.54,-20881.51,512
0.6816406,-16576.7,-20892.18,512
0.6835938,-16564.38,-20860.86,512
0.6855469,-16551.4,-20861.96,512
0.6875,-16563.43,-20885.57,512
0.6894531,-16552.62,-20877.55,512
0.6914062,-16555.88,-20876.3,512
0.6933594,-16552.82,-20872.24,512
0.6953125,-16566.7,-20895.27,512
0.6972656,-16558.75,-20881.09,512
0.6992188,-16564.96,-20883.89,512
0.7011719,-16559.44,-20890.95,512
0.703125,-16559.3,-20895,512
0.7050781,-16543.65,-20889.29,512
0.7070312,-16567.8,-20868.41,512
0.7089844,-16553.59,-20869.9,512
0.7109375,-16577.39,-20915.44,512
0.7128906,-16569.77,-20908.53,512
0.7148438,-16539.81,-20869.23,512
0.7167969,-16559.62,-20894.9,512
0.71875,-16546.47,-20881.5,512
0.7207031,-16542.36,-20885.74,512
0.7226562,-16560.41,-20912.97,512
0.7246094,-16580.48,-20903.12,512
0.7265625,-16564.81,-20901.06,512
0.7285156,-16551.71,-20871.31,512
0.7304688,-16572.19,-20887,512
0.7324219,-16570.44,-20880.29,512
0.734375,-16547.95,-20869.84,512
0.7363281,-16567.66,-20894.6,512
0.7382812,-16585.68,-20890.47,512
0.7402344,-16566.59,-20899.14,512
0.7421875,-16563.55,-20896.9,512
0.7441406,-16551.91,-20885.33,512
0.7460938,-16569.46,-20892.18,512
0.7480469,-16581.97,-20890.78,512
0.75,-16557.86,-20875.77,512
0.7519531,-16558.38,-20869.98,512
0.7539062,-16564.52,-20872.06,512
0.7558594,-16552.62,-20885.37,512
0.7578125,-16549.79,-20864.51,512
0.7597656,-16583.09,-20899.13,512
0.7617188,-16592.98,-20904.57,512
0.7636719,-16568.83,-20885.31,512
0.765625,-16593.79,-20900.01,512
0.7675781,-16582.35,-20901.95,512
0.7695312,-16566.71,-20907.58,512
0.7714844,-16560.83,-20901.72,512
0.7734375,-16573.68,-20894.05,512
0.7753906,-16598.46,-20907.64,512
0.7773438,-16569.24,-20896.33,512
0.7792969,-16575.91,-20896,512
0.78125,-16569.44,-20873.2,512
0.7832031,-16583,-20881.75,512
0.7851562,-16566.02,-20867.71,512
0.7871094,-16588.2,-20898.36,512
0.7890625,-16600.12,-20932.94,512
0.7910156,-16587.52,-20898.27,512
0.7929688,-16592.94,-20899.91,512
0.7949219,-16582.42,-20910.03,512
0.796875,-16554.97,-20882.73,512
0.7988281,-16560.87,-20879.64,512
0.8007812,-16580.27,-20894.41,512
0.8027344,-16588.9,-20899.51,512
0.8046875,-16577.61,-20877.36,512
0.8066406,-16559.61,-20891.12,512
0.8085938,-16562.09,-20876.87,512
0.8105469,-16580.01,-20883.74,512
0.8125,-16575.55,-20897.82,512
0.8144531,-16583.94,-20905.85,512
0.8164062,-16579.23,-20881.7,512
0.8183594,-16587.32,-20897.53,512
0.8203125,-16583.02,-20898.55,512
0.8222656,-16572.59,-20887.07,512
0.8242188,-16595.21,-20911.43,512
0.8261719,-16586.25,-20913.4,512
0.828125,-16585.18,-20903.82,512
0.8300781,-16578.31,-20891.05,512
0.8320312,-16583.75,-20910.3,512
0.8339844,-16572.83,-20902.98,512
0.8359375,-16580.18,-20906.26,512
0.8378906,-16592.32,-20917.31,512
0.8398438,-16565.53,-20901.01,512
0.8417969,-16564.95,-20907.71,512
0.84375,-16588.81,-20912.23,512
0.8457031,-16591.46,-20891.09,512
0.8476562,-16595.53,-20905.54,512
0.8496094,-16589.63,-20906.68,512
0.8515625,-16594.94,-20901.76,512
0.8535156,-16565.81,-20878.16,512
0.8554688,-16581.64,-20912.48,512
0.8574219,-16561.26,-20887.75,512
0.859375,-16568.12,-20885.36,512
0.8613281,-16595.8,-20916,512
0.8632812,-16571.86,-20890.88,512
0.8652344,-16573.91,-20882.77,512
0.8671875,-16574.12,-20874.13,512
0.8691406,-16581.81,-20887.24,512
0.8710938,-16560.94,-20889.81,512
0.8730469,-16561.19,-20893.85,512
0.875,-16573.91,-20904.13,512
0.8769531,-16573.96,-20910.89,512
0.8789062,-16574.41,-20901.46,512
0.8808594,-16568.91,-20895.59,512
0.8828125,-16562.06,-20896.31,512
0.8847656,-16589.2,-20900.78,512
0.8867188,-16600.41,-20918.22,512
0.8886719,-16578,-20901.87,512
0.890625,-16575.02,-20890.23,512
0.8925781,-16579.3,-20894.1,512
0.8945312,-16582.6,-20884.9,512
0.8964844,-16583.19,-20869.96,512
0.8984375,-16565.68,-20866.59,512
0.9003906,-16569.45,-20865.94,512
0.9023438,-16582.05,-20889.79,512
0.9042969,-16599.35,-20926.77,512
0.90625,-16583.05,-20893.07,512
0.9082031,-16563.71,-20875.79,512
0.9101562,-16545.47,-20855.29,512
0.9121094,-16549.23,-20859.83,512
0.9140625,-16565.51,-20880.85,512
0.9160156,-16562.05,-20852.96,512
0.9179688,-16560.56,-20863.55,512
0.9199219,-16549.37,-20867.7,512
0.921875,-16551.48,-20875.27,512
0.9238281,-16563.99,-20871.78,512
0.9257812,-16559.77,-20879.87,512
0.9277344,-16555.1,-20864.27,512
0.9296875,-16573.78,-20875.45,512
0.9316406,-16561.54,-20865.51,512
0.9335938,-16518.51,-20861.71,512
0.9355469,-16561.55,-20901.33,512
0.9375,-16563.47,-20890.61,512
0.9394531,-16567.25,-20873.17,512
0.9414062,-16562.89,-20867.78,512
0.9433594,-16566.48,-20898.38,512
0.9453125,-16565.35,-20894.74,512
0.9472656,-16567.76,-20896.63,512
0.9492188,-16563.98,-20891.85,512
0.9511719,-16558.02,-20897.65,512
0.953125,-16534.6,-20888.78,512
0.9550781,-16543.78,-20896.7,512
0.9570312,-16544.13,-20895.56,512
0.9589844,-16525.15,-20877.16,512
0.9609375,-16537.71,-20893.31,512
0.9628906,-16542.56,-20893.72,512
0.9648438,-16550.24,-20892.42,512
0.9667969,-16536.8,-20901.78,512
0.96875,-16543.61,-20891.34,512
0.9707031,-16533.3,-20888.31,512
0.9726562,-16513.3,-20876.05,512
0.9746094,-16515.37,-20878.93,512
0.9765625,-16503.89,-20867.83,512
0.9785156,-16535.08,-20863.74,512
0.9804688,-16514.22,-20855.17,512
0.9824219,-16523.3,-20867.86,512
0.984375,-16528.32,-20864.73,512
0.9863281,-16523.37,-20856.45,512
0.9882812,-16535.19,-20828.77,512
0.9902344,-16530.6,-20828.46,512
0.9921875,-16568.23,-20866.86,512
0.9941406,-16578.63,-20876.29,512
0.9960938,-16559.03,-20846.61,512
0.9980469,-16579.59,-20858.41,512
1,-16593.6,-20868.39,512
1.001953,-16580.66,-20866.89,512
1.003906,-16563.92,-20831.26,512
1.005859,-16580.9,-20852.7,512
1.007812,-16583.18,-20858.32,512
1.009766,-16577.96,-20836.94,512
1.011719,-16577.32,-20824.91,512
1.013672,-16559.95,-20800.61,512
1.015625,-16574.16,-20823.09,512
1.017578,-16593.02,-20843.22,512
1.019531,-16590.83,-20846.71,512
1.021484,-16576.02,-20828.38,512
1.023438,-16559.54,-20808.05,512
1.025391,-16569.47,-20805.08,512
1.027344,-16581.04,-20811.4,512
1.029297,-16591.63,-20820.03,512
1.03125,-16560.93,-20785.35,512
1.033203,-16566.83,-20789.58,512
1.035156,-16574.88,-20803.69,512
1.037109,-16572.6,-20805.81,512
1.039062,-16571.64,-20803.32,512
1.041016,-16558.63,-20794.67,512
1.042969,-16576.74,-20807.95,512
1.044922,-16562.5,-20783.25,512
1.046875,-16574.34,-20788.33,512
1.048828,-16569.78,-20786.53,512
1.050781,-16550.77,-20776.11,512
1.052734,-16535.76,-20774.94,512
1.054688,-16574.3,-20802.48,512
1.056641,-16559.21,-20788.26,512
1.058594,-16569.74,-20784.43,512
1.060547,-16587.04,-20796.87,512
1.0625,-16575.61,-20795.15,512
1.064453,-16570.18,-20796.76,512
1.066406,-16565.24,-20796.57,512
1.068359,-16586.46,-20794.11,512
1.070312,-16590.14,-20805.71,512
1.072266,-16578.98,-20791.81,512
1.074219,-16574.6,-20801.56,512
1.076172,-16579.48,-20795.59,512
1.078125,-16566.62,-20776.38,512
1.080078,-16570.81,-20774.58,512
1.082031,-16564.97,-20766.16,512
1.083984,-16567.85,-20774.27,512
1.085938,-16571.88,-20792.36,512
1.087891,-16564.05,-20788.84,512
1.089844,-16564.29,-20781.49,512
1.091797,-16575.6,-20778.63,512
1.09375,-16583.21,-20794.29,512
1.095703,-16588.73,-20788.73,512
1.097656,-16572.06,-20777.56,512
1.099609,-16579.42,-20778.15,512
1.101562,-16567.66,-20789.84,512
1.103516,-16554.73,-20768.34,512
1.105469,-16565.09,-20772.54,512
1.107422,-16574.66,-20780.26,512
1.109375,-16576.04,-20767.73,512
1.111328,-16575.15,-20785.73,512
1.113281,-16567.67,-20773.9,512
1.115234,-16552.6,-20754.38,512
1.117188,-16539.44,-20757.49,512
1.119141,-16536.94,-20755.28,512
1.121094,-16510.36,-20735.35,512
1.123047,-16508.62,-20725.21,512
1.125,-16501.82,-20725.9,512
1.126953,-16484.23,-20732.66,512
1.128906,-16464.87,-20724.47,512
1.130859,-16451.32,-20752.56,512
1.132812,-16420.62,-20718.81,512
1.134766,-16381.94,-20709.01,512
1.136719,-16391.75,-20727.43,512
1.138672,-16408.66,-20725.2,512
1.140625,-16439.72,-20714.08,512
1.142578,-16468.93,-20709.88,512
1.144531,-16475.59,-20701.03,512
1.146484,-16515.79,-20699.12,512
1.148438,-16536.66,-20693.67,512
1.150391,-16557.27,-20683.11,512
1.152344,-16607.36,-20701.32,512
1.154297,-16646.36,-20704.23,512
1.15625,-16662.33,-20696.47,512
1.158203,-16679.18,-20694.12,512
1.160156,-16705.63,-20716.29,512
1.162109,-16689.88,-20710.14,512
1.164062,-16687.82,-20699.12,512
1.166016,-16673.58,-20690.59,512
1.167969,-16647.22,-20705.42,512
1.169922,-16664.18,-20717.4,512
1.171875,-16652,-20706.6,512
1.173828,-16641.71,-20733.47,512
1.175781,-16649.57,-20716.51,512
1.177734,-16651.97,-20712.95,512
1.179688,-16650.62,-20724.81,512
1.181641,-16621.01,-20699.16,512
1.183594,-16613.21,-20702.55,512
1.185547,-16605.11,-20693.69,512
1.1875,-16610.6,-20711.37,512
1.189453,-16596.82,-20716.38,512
1.191406,-16608.2,-20735.51,512
1.193359,-16580.08,-20706.79,512
1.195312,-16560.83,-20687.78,512
1.197266,-16571.59,-20698.31,512
1.199219,-16563.45,-20696.63,512
1.201172,-16549.5,-20697.14,512
1.203125,-16547.51,-20673.35,512
1.205078,-16560.38,-20675.15,512
1.207031,-16554.04,-20680.46,512
1.208984,-16574.71,-20713.24,512
1.210938,-16575.24,-20709.04,512
1.212891,-16561.81,-20698.4,512
1.214844,-16561.78,-20713.43,512
1.216797,-16562,-20700.4,512
1.21875,-16551.77,-20702.38,512
1.220703,-16555.14,-20695.46,512
1.222656,-16556.47,-20699.56,512
1.224609,-16553.33,-20698.83,512
1.226562,-16550.01,-20681.47,512
1.228516,-16558.77,-20703.25,512
1.230469,-16558.65,-20704.82,512
1.232422,-16551.19,-20704.48,512
1.234375,-16545.08,-20689.07,512
1.236328,-16527.13,-20676.66,512
1.238281,-16558.54,-20694.03,512
1.240234,-16568.18,-20711.44,512
1.242188,-16542.09,-20679.46,512
1.244141,-16541.71,-20674.7,512
1.246094,-16548.61,-20691.13,512
1.248047,-16556.1,-20686.16,512
1.25,-16551,-20692.52,512
1.251953,-16564.14,-20703.99,512
1.253906,-16557.21,-20701.28,512
1.255859,-16551.74,-20701.5,512
1.257812,-16521.53,-20661.86,512
1.259766,-16532.37,-20676.4,512
1.261719,-16533.34,-20675.13,512
1.263672,-16545.12,-20683.38,512
1.265625,-16563.26,-20697.93,512
1.267578,-16561.7,-20696.11,512
1.269531,-16555.2,-20697.87,512
1.271484,-16578.1,-20715.24,512
1.273438,-16551.59,-20696.91,512
1.275391,-16553.13,-20702.92,512
1.277344,-16557.85,-20691.34,512
1.279297,-16553.7,-20690.57,512
1.28125,-16553.16,-20680.89,512
1.283203,-16544.69,-20678.83,512
1.285156,-16554.37,-20703.6,512
1.287109,-16540.17,-20700.09,512
1.289062,-16550.29,-20703.88,512
1.291016,-16549.47,-20706.84,512
1.292969,-16556.9,-20702.91,512
1.294922,-16546.58,-20689.92,512
1.296875,-16534.05,-20687.5,512
1.298828,-16531.24,-20687.84,512
1.300781,-16526.81,-20678,512
1.302734,-16516.07,-20680.42,512
1.304688,-16527.43,-20686.87,512
1.306641,-16543.28,-20698.49,512
1.308594,-16546.49,-20708.18,512
1.310547,-16545.36,-20688.7,512
1.3125,-16558.9,-20712.83,512
1.314453,-16551.85,-20712.04,512
1.316406,-16531.71,-20704.74,512
1.318359,-16545.17,-20710.09,512
1.320312,-16530.52,-20706.6,512
1.322266,-16538.38,-20712.61,512
1.324219,-16523.96,-20711.12,512
1.326172,-16525.27,-20711.46,512
1.328125,-16542.5,-20713.26,512
1.330078,-16529.8,-20695.82,512
1.332031,-16516.18,-20698.23,512
1.333984,-16520.51,-20698.76,512
1.335938,-16529.46,-20698.64,512
1.337891,-16536.37,-20705.61,512
1.339844,-16529.12,-20709.58,512
1.341797,-16528.95,-20706.71,512
1.34375,-16515.64,-20697.29,512
1.345703,-16515.5,-20715.29,512
1.347656,-16525.21,-20724.83,512
1.349609,-16526.98,-20707.41,512
1.351562,-16534.96,-20713.44,512
1.353516,-16511.24,-20687.37,512
1.355469,-16514.3,-20693.33,512
1.357422,-16504.64,-20707.03,512
1.359375,-16517.65,-20707.43,512
1.361328,-16516.65,-20702.77,512
1.363281,-16523.41,-20700.73,512
1.365234,-16510.28,-20691.09,512
1.367188,-16512.04,-20708.12,512
1.369141,-16510.24,-20716.43,512
1.371094,-16516.73,-20710.73,512
1.373047,-16521.26,-20714.23,512
1.375,-16512.32,-20709.03,512
1.376953,-16510.83,-20705.99,512
1.378906,-16508.32,-20699.35,512
1.380859,-16508.51,-20721.77,512
1.382812,-16501.84,-20720.73,512
1.384766,-16499.47,-20698.34,512
1.386719,-16501.48,-20717.6,512
1.388672,-16508.29,-20718.96,512
1.390625,-16503.86,-20711.89,512
1.392578,-16504.38,-20708.93,512
1.394531,-16500.27,-20709.04,512
1.396484,-16484.17,-20704.99,512
1.398438,-16487.94,-20690.64,512
1.400391,-16497.7,-20701.96,512
1.402344,-16490.49,-20716.56,512
1.404297,-16471.95,-20703.88,512
1.40625,-16484.69,-20709.3,512
1.408203,-16498.02,-20713.21,512
1.410156,-16493.3,-20710.21,512
1.412109,-16488.88,-20711.06,512
1.414062,-16475.91,-20711.6,512
1.416016,-16475.6,-20699.34,512
1.417969,-16474.9,-20711.53,512
1.419922,-16487.39,-20728.96,512
1.421875,-16482.51,-20720.19,512
1.423828,-16466.62,-20716.56,512
1.425781,-16466.98,-20702.35,512
1.427734,-16488.64,-20726.51,512
1.429688,-16494.04,-20723.12,512
1.431641,-16488.32,-20708.16,512
1.433594,-16475.8,-20689.17,512
1.435547,-16506.66,-20712.51,512
1.4375,-16504.28,-20738.03,512
1.439453,-16501.3,-20730.57,512
1.441406,-16495.39,-20718.11,512
1.443359,-16504.11,-20717,512
1.445312,-16499.49,-20709.06,512
1.447266,-16498.68,-20699.92,512
1.449219,-16497.05,-20687.44,512
1.451172,-16500.82,-20715.44,512
1.453125,-16509.68,-20712.58,512
1.455078,-16505.82,-20684.9,512
1.457031,-16497.94,-20680.67,512
1.458984,-16497.53,-20679.64,512
1.460938,-16516.39,-20684,512
1.462891,-16513.25,-20685.37,512
1.464844,-16516.42,-20661.73,512
1.466797,-16523.03,-20698.62,512
1.46875,-16523.36,-20685.6,512
1.470703,-16530.62,-20661.59,512
1.472656,-16539.73,-20671.25,512
1.474609,-16545.06,-20668.15,512
1.476562,-16544.5,-20675.12,512
1.478516,-16548.76,-20671.92,512
1.480469,-16549.36,-20667.82,512
1.482422,-16556.7,-20668.52,512
1.484375,-16559.63,-20682.38,512
1.486328,-16543.29,-20687.07,512
1.488281,-16542.27,-20677.13,512
1.490234,-16533.66,-20678.21,512
1.492188,-16542.72,-20681.37,512
1.494141,-16557.45,-20692.98,512
1.496094,-16551.82,-20667.05,512
1.498047,-16555.11,-20657.91,512
1.5,-16563.03,-20698.81,512
1.501953,-16555.16,-20683.96,512
1.503906,-16562.9,-20686.75,512
1.505859,-16546.01,-20696.72,512
1.507812,-16530.45,-20667.05,512
1.509766,-16552.46,-20670.46,512
1.511719,-16559.03,-20688.61,512
1.513672,-16549.76,-20671.6,512
1.515625,-16564.69,-20695.84,512
1.517578,-16565.39,-20701.1,512
1.519531,-16556.89,-20690.02,512
1.521484,-16560.33,-20686.53,512
1.523438,-16554.84,-20694.6,512
1.525391,-16558.72,-20699.53,512
1.527344,-16564.09,-20703.98,512
1.529297,-16559.15,-20694.35,512
1.53125,-16569.47,-20696.66,512
1.533203,-16564.46,-20698.84,512
1.535156,-16556.02,-20697.36,512
1.537109,-16560.64,-20695.91,512
1.539062,-16564.38,-20695.78,512
1.541016,-16571.28,-20707.96,512
1.542969,-16578.9,-20713.12,512
1.544922,-16569.57,-20707.15,512
1.546875,-16572.79,-20705.18,512
1.548828,-16558.14,-20692.4,512
1.550781,-16552.98,-20699.95,512
1.552734,-16554.85,-20704.06,512
1.554688,-16552.4,-20713.11,512
1.556641,-16549,-20709.35,512
1.558594,-16543.17,-20715.1,512
1.560547,-16578.23,-20715.78,512
1.5625,-16564.1,-20706.93,512
1.564453,-16552.35,-20687.38,512
1.566406,-16547.19,-20691.34,512
1.568359,-16548.25,-20700.52,512
1.570312,-16552.63,-20705.6,512
1.572266,-16561.83,-20713.84,512
1.574219,-16550.56,-20692.2,512
1.576172,-16552.76,-20695.18,512
1.578125,-16552.21,-20707.69,512
1.580078,-16540.95,-20694.84,512
1.582031,-16548.19,-20692.43,512
1.583984,-16549.55,-20703.36,512
1.585938,-16541.81,-20691.71,512
1.587891,-16555.32,-20695.33,512
1.589844,-16553.6,-20695.81,512
1.591797,-16565.87,-20700.65,512
1.59375,-16555.96,-20697.83,512
1.595703,-16569.64,-20710.54,512
1.597656,-16563.85,-20704.38,512
1.599609,-16550.3,-20704.4,512
1.601562,-16559.6,-20703.27,512
1.603516,-16559.07,-20686.06,512
1.605469,-16542.54,-20683.77,512
1.607422,-16555.8,-20694.93,512
1.609375,-16558.62,-20709.82,512
1.611328,-16570.01,-20713.67,512
1.613281,-16565.88,-20704.52,512
1.615234,-16545.38,-20706.65,512
1.617188,-16529.5,-20713.74,512
1.619141,-16548.47,-20709.64,512
1.621094,-16563.77,-20714.69,512
1.623047,-16545.26,-20687.79,512
1.625,-16537.44,-20693.41,512
1.626953,-16543.13,-20711.07,512
1.628906,-16544.58,-20704.82,512
1.630859,-16546.63,-20695.38,512
1.632812,-16547.93,-20700.56,512
1.634766,-16564.13,-20715.61,512
1.636719,-16536.15,-20669.43,512
1.638672,-16540.89,-20683.24,512
1.640625,-16557.11,-20720.24,512
1.642578,-16555.84,-20710.09,512
1.644531,-16555.16,-20710.35,512
1.646484,-16547.68,-20702.67,512
1.648438,-16552.01,-20708.05,512
1.650391,-16546.11,-20698.16,512
1.652344,-16533.76,-20695.62,512
1.654297,-16546.38,-20704.88,512
1.65625,-16556.34,-20700.03,512
1.658203,-16558.28,-20702.2,512
1.660156,-16559.15,-20710.96,512
1.662109,-16564.33,-20705.28,512
1.664062,-16558.67,-20689.04,512
1.666016,-16556.11,-20694.7,512
1.667969,-16558.99,-20701.34,512
1.669922,-16561.91,-20718,512
1.671875,-16535.71,-20703,512
1.673828,-16544.45,-20701.6,512
1.675781,-16537.15,-20700.3,512
1.677734,-16557.83,-20696.18,512
1.679688,-16574.78,-20697.92,512
1.681641,-16545.2,-20684.48,512
1.683594,-16562.87,-20700.66,512
1.685547,-16562.46,-20699.69,512
1.6875,-16561.64,-20698.84,512
1.689453,-16536.34,-20681.11,512
1.691406,-16522.07,-20669.1,512
1.693359,-16569.25,-20705.13,512
1.695312,-16566.54,-20693.23,512
1.697266,-16557.14,-20680.22,512
1.699219,-16551.88,-20682.44,512
1.701172,-16548.53,-20673.56,512
1.703125,-16555.67,-20676.12,512
1.705078,-16554.69,-20682.25,512
1.707031,-16559.53,-20697.2,512
1.708984,-16549.33,-20681.65,512
1.710938,-16558.74,-20688.11,512
1.712891,-16556.09,-20680.36,512
1.714844,-16541.28,-20668.69,512
1.716797,-16556.83,-20683.26,512
1.71875,-16559.79,-20691.23,512
1.720703,-16563.94,-20699.26,512
1.722656,-16552.19,-20677.33,512
1.724609,-16548.96,-20678.02,512
1.726562,-16555.93,-20679.55,512
1.728516,-16553.6,-20666.38,512
1.730469,-16554.81,-20671.57,512
1.732422,-16550.22,-20675.79,512
1.734375,-16562.11,-20684.74,512
1.736328,-16526.59,-20661.61,512
1.738281,-16528.6,-20670.14,512
1.740234,-16531.56,-20668.15,512
1.742188,-16538.42,-20666.02,512
1.744141,-16558.97,-20665.03,512
1.746094,-16567.74,-20680.71,512
1.748047,-16566.14,-20682.96,512
1.75,-16559.54,-20673.08,512
1.751953,-16556.27,-20657.95,512
1.753906,-16552.8,-20660.29,512
1.755859,-16540.75,-20647.81,512
1.757812,-16557.73,-20667.49,512
1.759766,-16566,-20674.31,512
1.761719,-16566.04,-20667.4,512
1.763672,-16556.92,-20672.63,512
1.765625,-16549.01,-20659.19,512
1.767578,-16552.82,-20665.19,512
1.769531,-16551.45,-20664.62,512
1.771484,-16548.33,-20658.56,512
1.773438,-16544.07,-20655.43,512
1.775391,-16555.93,-20674.51,512
1.777344,-16569.14,-20679.38,512
1.779297,-16553.75,-20658.23,512
1.78125,-16555.01,-20663.76,512
1.783203,-16552.92,-20675.72,512
1.785156,-16546.89,-20666.45,512
1.787109,-16550.8,-20660.14,512
1.789062,-16547.12,-20662.98,512
1.791016,-16552.24,-20665.33,512
1.792969,-16543.14,-20661.25,512
1.794922,-16545.89,-20665.76,512
1.796875,-16545.49,-20661.18,512
1.798828,-16545.01,-20649.04,512
1.800781,-16540.96,-20658.95,512
1.802734,-16532.9,-20657.62,512
1.804688,-16531.1,-20657.31,512
1.806641,-16548.02,-20679.88,512
1.808594,-16544.62,-20671.51,512
1.810547,-16532.8,-20650.54,512
1.8125,-16556.58,-20675.65,512
1.814453,-16537.57,-20659.71,512
1.816406,-16542.36,-20655.09,512
1.818359,-16551.18,-20664.19,512
1.820312,-16547.03,-20662.34,512
1.822266,-16548.49,-20661.98,512
1.824219,-16543.97,-20652.87,512
1.826172,-16535.25,-20636.88,512
1.828125,-16540.9,-20653.7,512
1.830078,-16547.03,-20662.63,512
1.832031,-16543.83,-20646.46,512
1.833984,-16550.57,-20651.25,512
1.835938,-16532.07,-20636.08,512
1.837891,-16532.75,-20639.17,512
1.839844,-16545.11,-20656.44,512
1.841797,-16543.66,-20655.96,512
1.84375,-16541.89,-20646.97,512
1.845703,-16537.26,-20643.77,512
1.847656,-16536.02,-20643.97,512
1.849609,-16542.49,-20665.14,512
1.851562,-16548.96,-20672.11,512
1.853516,-16541.96,-20654.52,512
1.855469,-16547.17,-20659.56,512
1.857422,-16534.84,-20657.67,512
1.859375,-16542.54,-20668.3,512
1.861328,-16556.74,-20666.24,512
1.863281,-16546.46,-20654.78,512
1.865234,-16558.8,-20656.5,512
1.867188,-16557.35,-20651.51,512
1.869141,-16546.83,-20653.4,512
1.871094,-16554.46,-20663.65,512
1.873047,-16552.96,-20668.69,512
1.875,-16560.64,-20663.41,512
1.876953,-16553.81,-20654.69,512
1.878906,-16551.5,-20652.09,512
1.880859,-16548.54,-20656.81,512
1.882812,-16555.35,-20659.88,512
1.884766,-16556.66,-20651.13,512
1.886719,-16556.4,-20647.93,512
1.888672,-16569.54,-20659.89,512
1.890625,-16538.07,-20645.18,512
1.892578,-16541.92,-20635.71,512
1.894531,-16536.7,-20633.9,512
1.896484,-16513.75,-20625.17,512
1.898438,-16535.57,-20625.9,512
1.900391,-16541.68,-20623.2,512
1.902344,-16522.51,-20620.74,512
1.904297,-16525.16,-20625.33,512
1.90625,-16554.62,-20644.57,512
1.908203,-16540.43,-20623.3,512
1.910156,-16533.98,-20627.16,512
1.912109,-16547.84,-20633.31,512
1.914062,-16548.62,-20636.51,512
1.916016,-16549.41,-20638.24,512
1.917969,-16553.08,-20636.2,512
1.919922,-16547.51,-20633.72,512
1.921875,-16550.85,-20640.45,512
1.923828,-16545.7,-20646.64,512
1.925781,-16558.63,-20646.4,512
1.927734,-16559.22,-20648.82,512
1.929688,-16580.32,-20663.45,512
1.931641,-16562.26,-20643.45,512
1.933594,-16557.27,-20640.13,512
1.935547,-16560.84,-20659.25,512
1.9375,-16535.84,-20656.28,512
1.939453,-16568.12,-20657.87,512
1.941406,-16564.09,-20653,512
1.943359,-16567.78,-20659.53,512
1.945312,-16574.62,-20653.71,512
1.947266,-16565.88,-20645.88,512
1.949219,-16559.74,-20639.25,512
1.951172,-16551.34,-20630.25,512
1.953125,-16507.07,-20619.31,512
1.955078,-16520.12,-20601.23,512
1.957031,-16545.07,-20608.88,512
1.958984,-16556.54,-20626.58,512
1.960938,-16533.65,-20600.7,512
1.962891,-16525.77,-20600.08,512
1.964844,-16556.26,-20625,512
1.966797,-16546.28,-20614.79,512
1.96875,-16529.94,-20602.33,512
1.970703,-16535.65,-20615.39,512
1.972656,-16547.05,-20609.49,512
1.974609,-16550.27,-20606.28,512
1.976562,-16558.29,-20605.73,512
1.978516,-16548.87,-20597.52,512
1.980469,-16556.3,-20607.95,512
1.982422,-16549.8,-20597.52,512
1.984375,-16558.46,-20612.7,512
1.986328,-16553.79,-20597.73,512
1.988281,-16544.96,-20586.93,512
1.990234,-16538.19,-20578.16,512
1.992188,-16542.69,-20579.68,512
1.994141,-16540.83,-20579.71,512
1.996094,-16550.59,-20580.96,512
1.998047,-16544.2,-20593.2,512
2,-16536.32,-20592.83,512
2.001953,-16535.87,-20584.49,512
2.003906,-16523.86,-20576.54,512
2.005859,-16536.68,-20587.51,512
2.007812,-16521.98,-20588.73,512
2.009766,-16521.77,-20587.43,512
2.011719,-16532.54,-20584.47,512
2.013672,-16532.58,-20567.97,512
2.015625,-16534.32,-20557.86,512
2.017578,-16515.49,-20553.66,512
2.019531,-16528.91,-20575.72,512
2.021484,-16523.23,-20567.28,512
2.023438,-16507.62,-20556.62,512
2.025391,-16528.49,-20557.98,512
2.027344,-16517.1,-20529.61,512
2.029297,-16507.52,-20522.23,512
2.03125,-16527.33,-20526.27,512
2.033203,-16527.05,-20528.33,512
2.035156,-16529.34,-20529.02,512
2.037109,-16523.17,-20533.75,512
2.039062,-16522.26,-20529.68,512
2.041016,-16525.48,-20533.38,512
2.042969,-16529.32,-20547.03,512
2.044922,-16518.34,-20516.85,512
2.046875,-16528.43,-20516.26,512
2.048828,-16550.92,-20531.45,512
2.050781,-16573.64,-20545.23,512
2.052734,-16566.73,-20541.06,512
2.054688,-16546,-20531.89,512
2.056641,-16549.34,-20544.8,512
2.058594,-16564.75,-20553.49,512
2.060547,-16561.65,-20542.28,512
2.0625,-16566.89,-20539.79,512
2.064453,-16580.54,-20552.86,512
2.066406,-16572.65,-20548.37,512
2.068359,-16552.28,-20531.97,512
2.070312,-16563.7,-20529.62,512
2.072266,-16563.62,-20539.19,512
2.074219,-16563.71,-20537.07,512
2.076172,-16565.69,-20527.26,512
2.078125,-16561.61,-20520.13,512
2.080078,-16561.71,-20518.22,512
2.082031,-16566.21,-20516.32,512
2.083984,-16566.23,-20526.39,512
2.085938,-16557.35,-20517.49,512
2.087891,-16562.6,-20521.28,512
2.089844,-16557.01,-20518.75,512
2.091797,-16550.39,-20510.12,512
2.09375,-16555.17,-20512.73,512
2.095703,-16556.23,-20515.04,512
2.097656,-16556.92,-20502.4,512
2.099609,-16561.14,-20511.92,512
2.101562,-16565.88,-20508.42,512
2.103516,-16556.21,-20510.65,512
2.105469,-16552.36,-20499.01,512
2.107422,-16570.15,-20505.59,512
2.109375,-16568.71,-20497.76,512
2.111328,-16553.74,-20480.06,512
2.113281,-16535.77,-20472.97,512
2.115234,-16567.37,-20493.69,512
2.117188,-16552.68,-20483.5,512
2.119141,-16539.9,-20474.39,512
2.121094,-16544.26,-20478.97,512
2.123047,-16552.65,-20490.76,512
2.125,-16559.63,-20485.68,512
2.126953,-16559.54,-20496.91,512
2.128906,-16543.45,-20457.12,512
2.130859,-16549.54,-20454.05,512
2.132812,-16546.54,-20465,512
2.134766,-16549.09,-20458.21,512
2.136719,-16546.09,-20465.12,512
2.138672,-16540.11,-20462.81,512
2.140625,-16551.62,-20471.11,512
2.142578,-16553.57,-20464.04,512
2.144531,-16548.52,-20465.48,512
2.146484,-16555.11,-20465.77,512
2.148438,-16564.08,-20462.65,512
2.150391,-16550.24,-20460.74,512
2.152344,-16547.82,-20464.3,512
2.154297,-16536.13,-20454.92,512
2.15625,-16536.74,-20456.26,512
2.158203,-16537.68,-20465.79,512
2.160156,-16515.74,-20453.57,512
2.162109,-16525.25,-20458.28,512
2.164062,-16527.04,-20462.26,512
2.166016,-16512.59,-20450.59,512
2.167969,-16505.86,-20452.92,512
2.169922,-16485.71,-20451.22,512
2.171875,-16454.67,-20441.84,512
2.173828,-16440.84,-20447.47,512
2.175781,-16415.27,-20447.99,512
2.177734,-16400.29,-20463.91,512
2.179688,-16385.72,-20469.8,512
2.181641,-16395.8,-20470.96,512
2.183594,-16401.22,-20471.47,512
2.185547,-16446.47,-20472.74,512
2.1875,-16471.26,-20469.49,512
2.189453,-16492.64,-20467.99,512
2.191406,-16528.79,-20467.92,512
2.193359,-16552.1,-20456.89,512
2.195312,-16588.27,-20454.41,512
2.197266,-16614.24,-20442.89,512
2.199219,-16622.4,-20418.68,512
2.201172,-16652.32,-20436.96,512
2.203125,-16686.33,-20450.25,512
2.205078,-16683.26,-20436.78,512
2.207031,-16698.55,-20444.88,512
2.208984,-16695.82,-20444.97,512
2.210938,-16662.84,-20421.25,512
2.212891,-16678.64,-20438.36,512
2.214844,-16672.12,-20441.3,512
2.216797,-16624.8,-20413.55,512
2.21875,-16617.96,-20427.5,512
2.220703,-16607.62,-20428.74,512
2.222656,-16585.55,-20422.29,512
2.224609,-16566.72,-20401.24,512
2.226562,-16579.55,-20413.9,512
2.228516,-16572.45,-20406.62,512
2.230469,-16573.65,-20423.49,512
2.232422,-16549.72,-20425.67,512
2.234375,-16533.62,-20413.62,512
2.236328,-16516.74,-20418.19,512
2.238281,-16505.7,-20411.78,512
2.240234,-16527.61,-20424.73,512
2.242188,-16508.08,-20414.53,512
2.244141,-16550.16,-20438.08,512
2.246094,-16553.76,-20439.04,512
2.248047,-16543.4,-20431.65,512
2.25,-16534.96,-20420.43,512
2.251953,-16529.97,-20423.38,512
2.253906,-16540.64,-20432.54,512
2.255859,-16544.63,-20422.11,512
2.257812,-16552.56,-20436.78,512
2.259766,-16551.24,-20445.46,512
2.261719,-16557.97,-20443.2,512
2.263672,-16541.94,-20426.25,512
2.265625,-16548.96,-20435.82,512
2.267578,-16551.06,-20440.01,512
2.269531,-16548.34,-20450.01,512
2.271484,-16547.61,-20441.96,512
2.273438,-16536.05,-20430.12,512
2.275391,-16528.82,-20430.99,512
2.277344,-16541.39,-20442.07,512
2.279297,-16544.29,-20443.34,512
2.28125,-16540.78,-20440.31,512
2.283203,-16544.02,-20446.29,512
2.285156,-16541.97,-20437.76,512
2.287109,-16539.04,-20431.99,512
2.289062,-16543.98,-20453.77,512
2.291016,-16540.13,-20439.43,512
2.292969,-16544.71,-20448.84,512
2.294922,-16546.44,-20456.68,512
2.296875,-16543.42,-20451.51,512
2.298828,-16554.29,-20450.79,512
2.300781,-16561.81,-20464.28,512
2.302734,-16540.41,-20453.75,512
2.304688,-16541.93,-20456.08,512
2.306641,-16547.15,-20460.78,512
2.308594,-16540.34,-20461.51,512
2.310547,-16533.12,-20448.66,512
2.3125,-16521.81,-20441.9,512
2.314453,-16538.7,-20452.02,512
2.316406,-16529.61,-20445.4,512
2.318359,-16523.42,-20437.37,512
2.320312,-16535.59,-20449.61,512
2.322266,-16526.84,-20442.07,512
2.324219,-16531.19,-20430,512
2.326172,-16545.44,-20437.82,512
2.328125,-16550.43,-20439.68,512
2.330078,-16544.11,-20430.44,512
2.332031,-16536.04,-20424.7,512
2.333984,-16554.96,-20439.56,512
2.335938,-16544.82,-20442.28,512
2.337891,-16517.62,-20429.37,512
2.339844,-16530.29,-20434.32,512
2.341797,-16545.37,-20449.29,512
2.34375,-16551.59,-20450.32,512
2.345703,-16547.81,-20437.04,512
2.347656,-16550.34,-20440.85,512
2.349609,-16540.36,-20441.14,512
2.351562,-16531.85,-20442.71,512
2.353516,-16516.84,-20431.08,512
2.355469,-16517.03,-20437.81,512
2.357422,-16513.89,-20425.64,512
2.359375,-16522.97,-20431.84,512
2.361328,-16525.97,-20446.66,512
2.363281,-16506.75,-20441.81,512
2.365234,-16499.61,-20442.05,512
2.367188,-16511.72,-20437.01,512
2.369141,-16512.84,-20438.25,512
2.371094,-16514.95,-20437.27,512
2.373047,-16528.21,-20442.25,512
2.375,-16512.41,-20439.23,512
2.376953,-16511.34,-20446.98,512
2.378906,-16510.65,-20439.18,512
2.380859,-16520.78,-20439.8,512
2.382812,-16529.96,-20447.53,512
2.384766,-16511.91,-20436.52,512
2.386719,-16501.99,-20431.75,512
2.388672,-16513.94,-20448.18,512
2.390625,-16515.76,-20456.79,512
2.392578,-16514.52,-20453.75,512
2.394531,-16509.17,-20445.78,512
2.396484,-16518.06,-20439.99,512
2.398438,-16525.39,-20467.02,512
2.400391,-16519.97,-20467.11,512
2.402344,-16517.62,-20468.58,512
2.404297,-16515.29,-20463.47,512
2.40625,-16505.01,-20454.46,512
2.408203,-16507.74,-20464.09,512
2.410156,-16510.63,-20462.46,512
2.412109,-16508.62,-20458.89,512
2.414062,-16502,-20462.7,512
2.416016,-16505.3,-20466.05,512
2.417969,-16503.3,-20464.31,512
2.419922,-16499.04,-20465.12,512
2.421875,-16490.1,-20456.95,512
2.423828,-16487.89,-20457.6,512
2.425781,-16495.03,-20459.81,512
2.427734,-16504.98,-20483.66,512
2.429688,-16496.32,-20471.23,512
2.431641,-16485.94,-20457.71,512
2.433594,-16489.43,-20462.6,512
2.435547,-16480.28,-20465.33,512
2.4375,-16438.24,-20461.71,512
2.439453,-16487.66,-20483.11,512
2.441406,-16501.34,-20489.13,512
2.443359,-16478.05,-20476.31,512
2.445312,-16490.99,-20484.72,512
2.447266,-16496.27,-20480.79,512
2.449219,-16506.63,-20490.55,512
2.451172,-16502.95,-20494.6,512
2.453125,-16502.47,-20507.24,512
2.455078,-16499.77,-20493.17,512
2.457031,-16485.3,-20489.44,512
2.458984,-16482.71,-20477.46,512
2.460938,-16467.01,-20451.72,512
2.462891,-16476.26,-20475.41,512
2.464844,-16480.12,-20468.17,512
2.466797,-16479.56,-20473.54,512
2.46875,-16480.55,-20477.61,512
2.470703,-16470.55,-20464.59,512
2.472656,-16477.4,-20479.08,512
2.474609,-16477.94,-20482.31,512
2.476562,-16471.01,-20473.74,512
2.478516,-16462.32,-20471.19,512
2.480469,-16455.16,-20458.3,512
2.482422,-16454.39,-20452.4,512
2.484375,-16464.21,-20454.51,512
2.486328,-16478.59,-20456.33,512
2.488281,-16476.87,-20468.11,512
2.490234,-16481.36,-20464.62,512
2.492188,-16478,-20470.4,512
2.494141,-16473.9,-20480.16,512
2.496094,-16492.44,-20469.85,512
2.498047,-16506.32,-20480.3,512
2.5,-16503.96,-20486.87,512
2.501953,-16512.24,-20488.58,512
2.503906,-16509.36,-20486.69,512
2.505859,-16498.02,-20471.19,512
2.507812,-16520.79,-20480.32,512
2.509766,-16507.29,-20470.25,512
2.511719,-16499.34,-20467.56,512
2.513672,-16516.58,-20490.19,512
2.515625,-16515.61,-20489.32,512
2.517578,-16520.55,-20491.1,512
2.519531,-16513.09,-20489.12,512
2.521484,-16512.92,-20481.89,512
2.523438,-16529.95,-20490.38,512
2.525391,-16538.58,-20493.6,512
2.527344,-16534.29,-20491.41,512
2.529297,-16536.1,-20486.54,512
2.53125,-16539.09,-20494.95,512
2.533203,-16534.4,-20492.35,512
2.535156,-16540.28,-20498.29,512
2.537109,-16538.25,-20501.28,512
2.539062,-16539.31,-20499.99,512
2.541016,-16535.47,-20502.62,512
2.542969,-16532.95,-20489.22,512
2.544922,-16545.7,-20483.89,512
2.546875,-16561.93,-20503.06,512
2.548828,-16548.55,-20492.47,512
2.550781,-16553.77,-20503.68,512
2.552734,-16555.09,-20502.38,512
2.554688,-16550.16,-20494.3,512
2.556641,-16550.19,-20502.86,512
2.558594,-16554.4,-20506.42,512
2.560547,-16560.42,-20499.22,512
2.5625,-16552.14,-20489.83,512
2.564453,-16561.6,-20483.25,512
2.566406,-16555.45,-20479.89,512
2.568359,-16553.6,-20488.88,512
2.570312,-16551.89,-20495.83,512
2.572266,-16539.96,-20480.87,512
2.574219,-16529.6,-20464.02,512
2.576172,-16539.67,-20473,512
2.578125,-16535.44,-20466.01,512
2.580078,-16530.49,-20464.73,512
2.582031,-16537.78,-20463.33,512
2.583984,-16544.08,-20486.12,512
2.585938,-16547.47,-20489.58,512
2.587891,-16538.79,-20478.3,512
2.589844,-16542.59,-20482.98,512
2.591797,-16543.65,-20476.18,512
2.59375,-16541.53,-20471.54,512
2.595703,-16528.13,-20462.43,512
2.597656,-16532.83,-20452.85,512
2.599609,-16550.3,-20481.34,512
2.601562,-16559.78,-20494.44,512
2.603516,-16548.01,-20469.69,512
2.605469,-16539.46,-20467.31,512
2.607422,-16530.6,-20467.12,512
2.609375,-16516.08,-20443.01,512
2.611328,-16535.25,-20447.77,512
2.613281,-16546.37,-20460.89,512
2.615234,-16535.98,-20453.24,512
2.617188,-16522.94,-20454.33,512
2.619141,-16544.68,-20471.4,512
2.621094,-16545.33,-20467.93,512
2.623047,-16545.78,-20471.82,512
2.625,-16542.79,-20463.49,512
2.626953,-16544.02,-20468.49,512
2.628906,-16536.22,-20469.41,512
2.630859,-16541.48,-20468.9,512
2.632812,-16534.65,-20467.94,512
2.634766,-16539.9,-20482.87,512
2.636719,-16539.73,-20477.66,512
2.638672,-16535.6,-20475.8,512
2.640625,-16538.4,-20476.33,512
2.642578,-16540.16,-20487.3,512
2.644531,-16536.33,-20478.02,512
2.646484,-16543.41,-20479.45,512
2.648438,-16537.56,-20472.38,512
2.650391,-16546.58,-20470.65,512
2.652344,-16560.84,-20486.88,512
2.654297,-16539.13,-20475.73,512
2.65625,-16542.67,-20482.43,512
2.658203,-16552.65,-20486.38,512
2.660156,-16540.77,-20474.67,512
2.662109,-16527.97,-20462.88,512
2.664062,-16529.99,-20476.58,512
2.666016,-16531.09,-20475.76,512
2.667969,-16542.6,-20476.87,512
2.669922,-16542.46,-20478.07,512
2.671875,-16543.05,-20475.3,512
2.673828,-16550.95,-20486.11,512
2.675781,-16547.67,-20471.54,512
2.677734,-16538.74,-20479.14,512
2.679688,-16532.75,-20463.76,512
2.681641,-16553.42,-20474.47,512
2.683594,-16554.63,-20480.96,512
2.685547,-16542.04,-20471.83,512
2.6875,-16553.48,-20486.79,512
2.689453,-16543.45,-20486.07,512
2.691406,-16551.85,-20489.29,512
2.693359,-16553.27,-20484.6,512
2.695312,-16548.25,-20473.62,512
2.697266,-16564.56,-20503.34,512
2.699219,-16551.34,-20484.18,512
2.701172,-16546.6,-20461.61,512
2.703125,-16559.04,-20493.71,512
2.705078,-16545.12,-20495.38,512
2.707031,-16538.18,-20474.06,512
2.708984,-16551.59,-20492.32,512
2.710938,-16543.62,-20483.96,512
2.712891,-16545.39,-20479.17,512
2.714844,-16543.25,-20482.72,512
2.716797,-16552.23,-20483.29,512
2.71875,-16554.33,-20505.1,512
2.720703,-16544.21,-20491.21,512
2.722656,-16551.67,-20491.17,512
2.724609,-16555.03,-20506,512
2.726562,-16548.47,-20498.35,512
2.728516,-16557,-20496.69,512
2.730469,-16560.29,-20496.86,512
2.732422,-16558.39,-20499.48,512
2.734375,-16545.14,-20488.54,512
2.736328,-16536.53,-20475.38,512
2.738281,-16541.79,-20479.3,512
2.740234,-16548.3,-20485.78,512
2.742188,-16538.13,-20484.31,512
2.744141,-16517.61,-20467.01,512
2.746094,-16549.72,-20482.23,512
2.748047,-16556.91,-20487.6,512
2.75,-16569.63,-20495.61,512
2.751953,-16562.74,-20490.49,512
2.753906,-16560.27,-20490.38,512
2.755859,-16561.17,-20491.58,512
2.757812,-16552.68,-20490.86,512
2.759766,-16561.96,-20492.94,512
2.761719,-16562.99,-20495.81,512
2.763672,-16552.5,-20484.67,512
2.765625,-16572.74,-20496.65,512
2.767578,-16568.04,-20486.53,512
2.769531,-16559.34,-20478.09,512
2.771484,-16561.84,-20482.13,512
2.773438,-16558.22,-20473.94,512
2.775391,-16555.45,-20475.92,512
2.777344,-16561.79,-20478.52,512
2.779297,-16551.63,-20464.84,512
2.78125,-16553.85,-20469.48,512
2.783203,-16556.99,-20473.69,512
2.785156,-16549.25,-20468.91,512
2.787109,-16560.8,-20489.49,512
2.789062,-16563.51,-20489.58,512
2.791016,-16556.41,-20485.06,512
2.792969,-16564.88,-20487.32,512
2.794922,-16565.97,-20481.04,512
2.796875,-16556.45,-20481.1,512
2.798828,-16552.1,-20483.93,512
2.800781,-16541.14,-20486.35,512
2.802734,-16547.84,-20488.32,512
2.804688,-16539.61,-20480.46,512
2.806641,-16550.84,-20485.43,512
2.808594,-16561.53,-20478.39,512
2.810547,-16563.57,-20489.3,512
2.8125,-16569.81,-20495.79,512
2.814453,-16565.2,-20487.06,512
2.816406,-16569.72,-20489.16,512
2.818359,-16569.22,-20485.05,512
2.820312,-16556.61,-20482.99,512
2.822266,-16569.1,-20501.35,512
2.824219,-16567.45,-20503.13,512
2.826172,-16560.06,-20495.82,512
2.828125,-16559.61,-20491.42,512
2.830078,-16534.87,-20468.62,512
2.832031,-16559.1,-20495.69,512
2.833984,-16549.14,-20489.87,512
2.835938,-16541.31,-20485.99,512
2.837891,-16558.04,-20511.99,512
2.839844,-16593.87,-20531.18,512
2.841797,-16560.11,-20506.39,512
2.84375,-16550.15,-20495.51,512
2.845703,-16563.06,-20509.04,512
2.847656,-16556.65,-20507.92,512
2.849609,-16569.41,-20510.59,512
2.851562,-16579.09,-20509.86,512
2.853516,-16566.41,-20502.08,512
2.855469,-16565.42,-20507.92,512
2.857422,-16559.98,-20509.3,512
2.859375,-16555.55,-20501.99,512
2.861328,-16556.19,-20494.71,512
2.863281,-16561.37,-20496.7,512
2.865234,-16576.56,-20505.46,512
2.867188,-16560.49,-20506.54,512
2.869141,-16556.57,-20503.64,512
2.871094,-16573.26,-20511.77,512
2.873047,-16575.8,-20523.49,512
2.875,-16574.4,-20520.77,512
2.876953,-16566.61,-20510.04,512
2.878906,-16566.03,-20510.12,512
2.880859,-16565.73,-20502.37,512
2.882812,-16570.68,-20506.04,512
2.884766,-16563.08,-20498.89,512
2.886719,-16554.64,-20500.64,512
2.888672,-16557.2,-20502.66,512
2.890625,-16557.22,-20497.01,512
2.892578,-16566.3,-20500.6,512
2.894531,-16562.61,-20500.39,512
2.896484,-16565.38,-20503.81,512
2.898438,-16563.26,-20499.5,512
2.900391,-16551.01,-20494.32,512
2.902344,-16555.18,-20509.43,512
2.904297,-16547.28,-20493.44,512
2.90625,-16543.06,-20495.8,512
2.908203,-16555.47,-20500.17,512
2.910156,-16541.29,-20490.37,512
2.912109,-16544.25,-20490.51,512
2.914062,-16542.22,-20491.7,512
2.916016,-16551.41,-20506.38,512
2.917969,-16544.01,-20501.38,512
2.919922,-16544.71,-20501,512
2.921875,-16546.69,-20497.04,512
2.923828,-16547.75,-20495.78,512
2.925781,-16555.87,-20505.36,512
2.927734,-16550.43,-20496.43,512
2.929688,-16561.35,-20506.4,512
2.931641,-16559.32,-20513.37,512
2.933594,-16564.06,-20518.57,512
2.935547,-16556.48,-20512.31,512
2.9375,-16561.07,-20516.01,512
2.939453,-16544.76,-20508.31,512
2.941406,-16549.46,-20516.93,512
2.943359,-16551.67,-20511.04,512
2.945312,-16556.41,-20503.19,512
2.947266,-16563.27,-20507.33,512
2.949219,-16567.51,-20523.07,512
2.951172,-16578.3,-20539.59,512
2.953125,-16571.84,-20541.47,512
2.955078,-16552.88,-20532.74,512
2.957031,-16550.26,-20521.38,512
2.958984,-16556.43,-20520.1,512
2.960938,-16556.43,-20523.43,512
2.962891,-16563.92,-20524.21,512
2.964844,-16554.47,-20511.16,512
2.966797,-16544.89,-20518.76,512
2.96875,-16535.69,-20515.03,512
2.970703,-16531.92,-20501.38,512
2.972656,-16545.9,-20499.49,512
2.974609,-16564.23,-20512.16,512
2.976562,-16556.54,-20509.72,512
2.978516,-16553.36,-20503.3,512
2.980469,-16564.14,-20512.19,512
2.982422,-16557.29,-20507.91,512
2.984375,-16546.87,-20502.46,512
2.986328,-16553.3,-20506.08,512
2.988281,-16558.45,-20510.1,512
2.990234,-16548.8,-20505.17,512
2.992188,-16555.21,-20512.18,512
2.994141,-16560.11,-20508.61,512
2.996094,-16566.04,-20517.91,512
2.998047,-16569.25,-20528.4,512
3,-16565.71,-20518.3,512
3.001953,-16560.38,-20526.44,512
3.003906,-16559.73,-20522.37,512
3.005859,-16564.58,-20531.77,512
3.007812,-16558.4,-20526.16,512
3.009766,-16568.44,-20534.5,512
3.011719,-16577.68,-20542.32,512
3.013672,-16579.88,-20541.26,512
3.015625,-16576.06,-20539.56,512
3.017578,-16579.68,-20553.07,512
3.019531,-16574.76,-20549.34,512
3.021484,-16574.41,-20548.51,512
3.023438,-16578.61,-20556.31,512
3.025391,-16571.63,-20550.24,512
3.027344,-16577.09,-20558.07,512
3.029297,-16581.37,-20554.17,512
3.03125,-16578.21,-20540.99,512
3.033203,-16579.07,-20552.26,512
3.035156,-16584.32,-20559,512
3.037109,-16576.5,-20555.02,512
3.039062,-16571.01,-20554.55,512
3.041016,-16562.83,-20544.54,512
3.042969,-16575.81,-20549.3,512
3.044922,-16568.44,-20542.48,512
3.046875,-16561.16,-20528.23,512
3.048828,-16564.75,-20526.94,512
3.050781,-16565.82,-20527.33,512
3.052734,-16561.17,-20515.54,512
3.054688,-16550.39,-20514.22,512
3.056641,-16563.41,-20530.08,512
3.058594,-16550.3,-20512,512
3.060547,-16560.21,-20517.47,512
3.0625,-16553.97,-20511.21,512
3.064453,-16544.22,-20507.47,512
3.066406,-16536.64,-20507.17,512
3.068359,-16531.43,-20495.69,512
3.070312,-16542.54,-20499.32,512
3.072266,-16552.59,-20505.27,512
3.074219,-16559.24,-20516.55,512
3.076172,-16543.88,-20500.08,512
3.078125,-16556.28,-20510.54,512
3.080078,-16556.06,-20506.67,512
3.082031,-16539.68,-20489.59,512
3.083984,-16532.85,-20471.08,512
3.085938,-16527.1,-20473.27,512
3.087891,-16518.5,-20486.89,512
3.089844,-16531.73,-20482.34,512
3.091797,-16573.94,-20483.03,512
3.09375,-16586.06,-20482.59,512
3.095703,-16559.17,-20458.08,512
3.097656,-16576.54,-20480.21,512
3.099609,-16564.82,-20473.72,512
3.101562,-16559.98,-20468.23,512
3.103516,-16556.81,-20481.18,512
3.105469,-16564.58,-20480.01,512
3.107422,-16553.34,-20472.66,512
3.109375,-16553.67,-20473.35,512
3.111328,-16563.8,-20485.09,512
3.113281,-16555.53,-20475.6,512
3.115234,-16552.83,-20478.51,512
3.117188,-16546.81,-20481.16,512
3.119141,-16535.57,-20473.81,512
3.121094,-16538.99,-20478.98,512
3.123047,-16531.04,-20467.32,512
3.125,-16536.58,-20475.34,512
3.126953,-16549.62,-20492.04,512
3.128906,-16546.46,-20483.07,512
3.130859,-16546.68,-20479.79,512
3.132812,-16543.98,-20475.32,512
3.134766,-16532.78,-20459.64,512
3.136719,-16529.54,-20459.5,512
3.138672,-16527.49,-20457.04,512
3.140625,-16519.59,-20447.82,512
3.142578,-16522.52,-20436.45,512
3.144531,-16531.45,-20440.19,512
3.146484,-16529.86,-20439.06,512
3.148438,-16524.96,-20436.63,512
3.150391,-16527.78,-20436.33,512
3.152344,-16519.75,-20427.79,512
3.154297,-16527.62,-20430.97,512
3.15625,-16517.05,-20423.62,512
3.158203,-16521.88,-20418.61,512
3.160156,-16534.9,-20423.24,512
3.162109,-16533.58,-20410.36,512
3.164062,-16548,-20412.96,512
3.166016,-16538.79,-20409.78,512
3.167969,-16499.38,-20392.6,512
3.169922,-16544.76,-20423.54,512
3.171875,-16550.25,-20424.93,512
3.173828,-16525.24,-20421.43,512
3.175781,-16530.57,-20411.62,512
3.177734,-16548.05,-20421.1,512
3.179688,-16554.7,-20431.16,512
3.181641,-16533.62,-20413.76,512
3.183594,-16567.68,-20433.71,512
3.185547,-16547.08,-20421.18,512
3.1875,-16558.25,-20419.75,512
3.189453,-16569.18,-20438.86,512
3.191406,-16561.81,-20433.92,512
3.193359,-16571.01,-20438.41,512
3.195312,-16555.55,-20435.23,512
3.197266,-16553.43,-20428.16,512
3.199219,-16545.93,-20425.94,512
3.201172,-16552.15,-20427.23,512
3.203125,-16548.04,-20433.37,512
3.205078,-16548.94,-20443.71,512
3.207031,-16550.75,-20443.04,512
3.208984,-16555.63,-20437.86,512
3.210938,-16550.76,-20433.67,512
3.212891,-16556.97,-20437.61,512
3.214844,-16572.29,-20453.04,512
3.216797,-16546.7,-20436.59,512
3.21875,-16548.7,-20452.34,512
3.220703,-16562.54,-20451.93,512
3.222656,-16564.29,-20441.15,512
3.224609,-16558.96,-20451.66,512
3.226562,-16560.27,-20452.83,512
3.228516,-16563.5,-20448.61,512
3.230469,-16557.3,-20448.87,512
3.232422,-16565.27,-20449.6,512
3.234375,-16558.25,-20439.93,512
3.236328,-16553.35,-20427.5,512
3.238281,-16547.38,-20432.84,512
3.240234,-16545.71,-20439.32,512
3.242188,-16554.24,-20452.74,512
3.244141,-16559.59,-20455.86,512
3.246094,-16556.3,-20445.26,512
3.248047,-16559.07,-20456.13,512
3.25,-16539.13,-20443.5,512
3.251953,-16532.72,-20438.51,512
3.253906,-16547.6,-20447.41,512
3.255859,-16543.64,-20454.11,512
3.257812,-16537.16,-20449.51,512
3.259766,-16542.58,-20447.87,512
3.261719,-16550.17,-20455.72,512
3.263672,-16540.18,-20443.01,512
3.265625,-16538.58,-20437.79,512
3.267578,-16539.49,-20434.61,512
3.269531,-16546.24,-20456.37,512
3.271484,-16529.55,-20443.1,512
3.273438,-16525.5,-20446.7,512
3.275391,-16520.2,-20441.61,512
3.277344,-16514.21,-20446.49,512
3.279297,-16509.94,-20448.32,512
3.28125,-16510.22,-20449.82,512
3.283203,-16486.34,-20445.88,512
3.285156,-16461.97,-20439.09,512
3.287109,-16433.55,-20446.89,512
3.289062,-16405.92,-20441.13,512
3.291016,-16383.57,-20445.87,512
3.292969,-16376.01,-20462.53,512
3.294922,-16369.26,-20465.43,512
3.296875,-16369.76,-20480.22,512
3.298828,-16411.07,-20499.43,512
3.300781,-16448.97,-20480.04,512
3.302734,-16474.55,-20486.26,512
3.304688,-16503.29,-20488.81,512
3.306641,-16535.28,-20487.5,512
3.308594,-16551.34,-20471.2,512
3.310547,-16586.58,-20475.04,512
3.3125,-16622.08,-20477.21,512
3.314453,-16635.23,-20470.25,512
3.316406,-16664.81,-20478.45,512
3.318359,-16663.96,-20471.76,512
3.320312,-16675.25,-20474.55,512
3.322266,-16678.41,-20487.43,512
3.324219,-16655.67,-20491.21,512
3.326172,-16660.14,-20481.13,512
3.328125,-16648.66,-20476.74,512
3.330078,-16623.32,-20475.53,512
3.332031,-16602.23,-20454.79,512
3.333984,-16600.3,-20455.98,512
3.335938,-16584.45,-20452.55,512
3.337891,-16562.76,-20451.36,512
3.339844,-16561.61,-20458.1,512
3.341797,-16560.25,-20475.59,512
3.34375,-16561.83,-20472.79,512
3.345703,-16571.17,-20481.83,512
3.347656,-16559.82,-20471.93,512
3.349609,-16544.75,-20470.26,512
3.351562,-16530.61,-20463.94,512
3.353516,-16545.71,-20471.01,512
3.355469,-16555.4,-20482,512
3.357422,-16551.63,-20475.14,512
3.359375,-16552.83,-20477.16,512
3.361328,-16561.19,-20485.97,512
3.363281,-16549.51,-20481.78,512
3.365234,-16538.31,-20477.68,512
3.367188,-16518.21,-20472.48,512
3.369141,-16535.78,-20480.6,512
3.371094,-16555.31,-20488.41,512
3.373047,-16551.03,-20481.05,512
3.375,-16546.17,-20482.15,512
3.376953,-16550.84,-20484.88,512
3.378906,-16546.55,-20481.95,512
3.380859,-16543.8,-20482.5,512
3.382812,-16547.22,-20491.69,512
3.384766,-16541.36,-20490.01,512
3.386719,-16543.14,-20496.53,512
3.388672,-16547.32,-20502.4,512
3.390625,-16525.72,-20483.88,512
3.392578,-16522.99,-20487.71,512
3.394531,-16545.9,-20493.67,512
3.396484,-16551.76,-20490.38,512
3.398438,-16541.88,-20493.83,512
3.400391,-16537.13,-20493.09,512
3.402344,-16548.16,-20500.43,512
3.404297,-16540.63,-20499.07,512
3.40625,-16537.48,-20502.18,512
3.408203,-16534.6,-20500.08,512
3.410156,-16527.91,-20493.13,512
3.412109,-16533.3,-20501.2,512
3.414062,-16527.18,-20493.18,512
3.416016,-16530.88,-20487.1,512
3.417969,-16523.96,-20488.06,512
3.419922,-16525.94,-20499.66,512
3.421875,-16518.93,-20499.62,512
3.423828,-16530.49,-20496.23,512
3.425781,-16531.06,-20489.61,512
3.427734,-16523.85,-20480.34,512
3.429688,-16522.81,-20483.47,512
3.431641,-16529.19,-20493.4,512
3.433594,-16527.64,-20485.08,512
3.435547,-16527.82,-20492.14,512
3.4375,-16525.34,-20499.74,512
3.439453,-16520.82,-20497.61,512
3.441406,-16540.62,-20511.6,512
3.443359,-16536.52,-20504.66,512
3.445312,-16527.99,-20492.42,512
3.447266,-16522.18,-20480.26,512
3.449219,-16521.6,-20480.62,512
3.451172,-16534.71,-20493.27,512
3.453125,-16528.96,-20506.78,512
3.455078,-16514.18,-20493.74,512
3.457031,-16521.6,-20495.55,512
3.458984,-16537.19,-20503.86,512
3.460938,-16548.02,-20494.6,512
3.462891,-16543.49,-20500.02,512
3.464844,-16532.93,-20488.16,512
3.466797,-16526.88,-20484.3,512
3.46875,-16533.05,-20499.77,512
3.470703,-16527.13,-20494.8,512
3.472656,-16529.05,-20499.55,512
3.474609,-16520.54,-20499.67,512
3.476562,-16518.96,-20498.77,512
3.478516,-16519.24,-20497.53,512
3.480469,-16512.87,-20487.62,512
3.482422,-16520.64,-20492.95,512
3.484375,-16512.65,-20498.53,512
3.486328,-16528.03,-20503.79,512
3.488281,-16531.78,-20500.41,512
3.490234,-16508.7,-20490.96,512
3.492188,-16519.02,-20495.92,512
3.494141,-16518.97,-20496.81,512
3.496094,-16514.23,-20490.2,512
3.498047,-16519.34,-20495.74,512
3.5,-16516.12,-20500.72,512
3.501953,-16505.37,-20497.13,512
3.503906,-16507.62,-20507.62,512
3.505859,-16498.83,-20503.37,512
3.507812,-16509.02,-20519.74,512
3.509766,-16523.43,-20538.98,512
3.511719,-16523.74,-20529.84,512
3.513672,-16518.85,-20521.18,512
3.515625,-16508.44,-20518.38,512
3.517578,-16512.76,-20527.15,512
3.519531,-16504.39,-20522.12,512
3.521484,-16504.91,-20523.73,512
3.523438,-16506.17,-20522.42,512
3.525391,-16510.72,-20531.68,512
3.527344,-16513.06,-20531.18,512
3.529297,-16506.88,-20521.26,512
3.53125,-16505.34,-20517.7,512
3.533203,-16496.3,-20515.18,512
3.535156,-16506.93,-20529.34,512
3.537109,-16515.77,-20541.77,512
3.539062,-16506.17,-20534.84,512
3.541016,-16506.54,-20530.1,512
3.542969,-16499.85,-20531.85,512
3.544922,-16493.21,-20525.38,512
3.546875,-16494.32,-20528.12,512
3.548828,-16500.68,-20538.03,512
3.550781,-16494.15,-20532.35,512
3.552734,-16488.34,-20533.76,512
3.554688,-16480.9,-20528.22,512
3.556641,-16485.06,-20530.71,512
3.558594,-16470.44,-20519.42,512
3.560547,-16485.13,-20535.26,512
3.5625,-16491.08,-20540.36,512
3.564453,-16482.89,-20534.7,512
3.566406,-16479.32,-20538.14,512
3.568359,-16467.05,-20524.93,512
3.570312,-16477.51,-20534.74,512
3.572266,-16477.88,-20538.34,512
3.574219,-16465.38,-20525.04,512
3.576172,-16463.03,-20522.95,512
3.578125,-16466.84,-20521.3,512
3.580078,-16470.33,-20521.23,512
3.582031,-16479.49,-20537.18,512
3.583984,-16476.89,-20535.77,512
3.585938,-16469.2,-20530.95,512
3.587891,-16470.06,-20530.46,512
3.589844,-16469.82,-20528.83,512
3.591797,-16474,-20535.63,512
3.59375,-16473.35,-20533.28,512
3.595703,-16476.52,-20521.02,512
3.597656,-16482.39,-20518.35,512
3.599609,-16491.18,-20535.1,512
3.601562,-16487.38,-20538.39,512
3.603516,-16485.93,-20533.21,512
3.605469,-16493.63,-20536.44,512
3.607422,-16494.57,-20540.56,512
3.609375,-16498.27,-20547.53,512
3.611328,-16500.03,-20541.64,512
3.613281,-16495.91,-20537.13,512
3.615234,-16495.11,-20539.39,512
3.617188,-16489.26,-20523.88,512
3.619141,-16487.88,-20516.03,512
3.621094,-16495.46,-20533.1,512
3.623047,-16500.59,-20534.96,512
3.625,-16519.78,-20541.33,512
3.626953,-16517.11,-20539.96,512
3.628906,-16509.75,-20519.29,512
3.630859,-16513.08,-20516.37,512
3.632812,-16513.82,-20531.29,512
3.634766,-16521.32,-20533.62,512
3.636719,-16530.23,-20541.34,512
3.638672,-16527.94,-20540.11,512
3.640625,-16524.3,-20531.71,512
3.642578,-16526.36,-20529.71,512
3.644531,-16523.15,-20526.58,512
3.646484,-16533.05,-20530.68,512
3.648438,-16532.57,-20533.28,512
3.650391,-16526.72,-20539.45,512
3.652344,-16529.28,-20536.69,512
3.654297,-16521.39,-20526.67,512
3.65625,-16524.57,-20531.33,512
3.658203,-16530.02,-20534.12,512
3.660156,-16537.92,-20536.56,512
3.662109,-16534.47,-20539.26,512
3.664062,-16533.38,-20536.49,512
3.666016,-16524.22,-20529.49,512
3.667969,-16536.54,-20539,512
3.669922,-16527.85,-20529.01,512
3.671875,-16521.98,-20532.43,512
3.673828,-16517.92,-20540.39,512
3.675781,-16524.33,-20537.21,512
3.677734,-16540.17,-20543.93,512
3.679688,-16543.06,-20539.92,512
3.681641,-16552.32,-20543.86,512
3.683594,-16547.39,-20535.47,512
3.685547,-16535.59,-20532.98,512
3.6875,-16530.59,-20527.63,512
3.689453,-16526.61,-20532.3,512
3.691406,-16531.19,-20545.38,512
3.693359,-16538.04,-20547.62,512
3.695312,-16530.24,-20537.06,512
3.697266,-16522.38,-20531.59,512
3.699219,-16535.18,-20549.01,512
3.701172,-16534.13,-20549.85,512
3.703125,-16506.57,-20528.5,512
3.705078,-16527.62,-20532.12,512
3.707031,-16534.08,-20543.55,512
3.708984,-16534.87,-20545.4,512
3.710938,-16536.35,-20537.22,512
3.712891,-16541.51,-20540.34,512
3.714844,-16536.12,-20526.47,512
3.716797,-16535.5,-20527.83,512
3.71875,-16534.87,-20540.76,512
3.720703,-16528.83,-20544.09,512
3.722656,-16527.5,-20534.38,512
3.724609,-16520.77,-20527.58,512
3.726562,-16529.99,-20540.91,512
3.728516,-16528.74,-20542.62,512
3.730469,-16525.77,-20538.11,512
3.732422,-16520.79,-20531.28,512
3.734375,-16527.55,-20533.69,512
3.736328,-16526.34,-20542.2,512
3.738281,-16517.36,-20538.24,512
3.740234,-16514.83,-20533.21,512
3.742188,-16518.74,-20527.8,512
3.744141,-16520.12,-20524.33,512
3.746094,-16525.31,-20527.35,512
3.748047,-16523.46,-20537.04,512
3.75,-16521.97,-20533.05,512
3.751953,-16531.37,-20540,512
3.753906,-16540.11,-20546.54,512
3.755859,-16531.09,-20545.55,512
3.757812,-16521.34,-20541.44,512
3.759766,-16534.94,-20547.2,512
3.761719,-16541.79,-20541.25,512
3.763672,-16541.73,-20539.25,512
3.765625,-16535.24,-20538.88,512
3.767578,-16522.6,-20530.95,512
3.769531,-16524.99,-20528.06,512
3.771484,-16537.18,-20537.4,512
3.773438,-16536.6,-20535.11,512
3.775391,-16533.38,-20532.5,512
3.777344,-16527.2,-20534.29,512
3.779297,-16515.68,-20525.47,512
3.78125,-16541.76,-20533.89,512
3.783203,-16546.53,-20535.92,512
3.785156,-16531.79,-20530.17,512
3.787109,-16522.25,-20534.51,512
3.789062,-16533.64,-20536.12,512
3.791016,-16535.01,-20540.87,512
3.792969,-16535.11,-20540.51,512
3.794922,-16533.48,-20537.71,512
3.796875,-16522.04,-20527.9,512
3.798828,-16522.59,-20531.03,512
3.800781,-16549.42,-20547.01,512
3.802734,-16538.64,-20547.42,512
3.804688,-16526.49,-20540.73,512
3.806641,-16532.78,-20541.28,512
3.808594,-16539.55,-20548.48,512
3.810547,-16551,-20553.62,512
3.8125,-16541.2,-20537.17,512
3.814453,-16540.18,-20537.41,512
3.816406,-16538.05,-20541.03,512
3.818359,-16531.24,-20535.42,512
3.820312,-16542.79,-20550.23,512
3.822266,-16537.3,-20545.9,512
3.824219,-16536,-20538.72,512
3.826172,-16536.91,-20548.26,512
3.828125,-16540.5,-20544.47,512
3.830078,-16550.45,-20556.43,512
3.832031,-16558.4,-20561.05,512
3.833984,-16558.22,-20562.87,512
3.835938,-16555.51,-20567.05,512
3.837891,-16557.25,-20557.79,512
3.839844,-16556.55,-20559.15,512
3.841797,-16553.4,-20562.94,512
3.84375,-16547.77,-20552.92,512
3.845703,-16544.35,-20552.72,512
3.847656,-16548.21,-20559.83,512
3.849609,-16548.56,-20551.85,512
3.851562,-16568.63,-20562.15,512
3.853516,-16555.08,-20546.67,512
3.855469,-16542.72,-20544.82,512
3.857422,-16549.9,-20550.38,512
3.859375,-16556.78,-20553.01,512
3.861328,-16550.82,-20538.57,512
3.863281,-16562.03,-20553.01,512
3.865234,-16559.46,-20550.76,512
3.867188,-16555.2,-20532.24,512
3.869141,-16544.13,-20545.15,512
3.871094,-16546.51,-20558.53,512
3.873047,-16558.33,-20561.08,512
3.875,-16545.73,-20558.9,512
3.876953,-16536.91,-20549.42,512
3.878906,-16528.59,-20543.67,512
3.880859,-16545.63,-20545.87,512
3.882812,-16563.06,-20543.26,512
3.884766,-16554.15,-20538.12,512
3.886719,-16556.54,-20540.11,512
3.888672,-16545.35,-20538.68,512
3.890625,-16540.12,-20540.82,512
3.892578,-16536.07,-20530.41,512
3.894531,-16525.98,-20526.77,512
3.896484,-16525.72,-20529.64,512
3.898438,-16562.24,-20545.46,512
3.900391,-16550.67,-20550.76,512
3.902344,-16560.48,-20559.88,512
3.904297,-16545.1,-20540.66,512
3.90625,-16548.51,-20552.05,512
3.908203,-16543.08,-20545.03,512
3.910156,-16555.72,-20553.13,512
3.912109,-16562.52,-20549.29,512
3.914062,-16573.77,-20544.7,512
3.916016,-16576.18,-20546.44,512
3.917969,-16565.41,-20538.42,512
3.919922,-16557.25,-20542.71,512
3.921875,-16545.03,-20534.5,512
3.923828,-16555.84,-20535.17,512
3.925781,-16573.6,-20547.36,512
3.927734,-16558.71,-20536.65,512
3.929688,-16554.37,-20532.26,512
3.931641,-16563.5,-20534.85,512
3.933594,-16561.24,-20536.7,512
3.935547,-16559.46,-20540.76,512
3.9375,-16567.64,-20541.44,512
3.939453,-16559.22,-20541.49,512
3.941406,-16567.99,-20545.61,512
3.943359,-16570.95,-20551.32,512
3.945312,-16562.08,-20546.63,512
3.947266,-16555.94,-20538.46,512
3.949219,-16569.41,-20545.4,512
3.951172,-16561.61,-20549.43,512
3.953125,-16556.86,-20546.9,512
3.955078,-16566.36,-20549.75,512
3.957031,-16565.79,-20547.14,512
3.958984,-16566.41,-20537.87,512
3.960938,-16560.97,-20535.01,512
3.962891,-16566.56,-20543.23,512
3.964844,-16560.55,-20535.6,512
3.966797,-16564.65,-20539.08,512
3.96875,-16557.92,-20539.35,512
3.970703,-16558.12,-20549.02,512
3.972656,-16560.57,-20549.79,512
3.974609,-16561.54,-20545.66,512
3.976562,-16565.5,-20544.76,512
3.978516,-16563.29,-20544.51,512
3.980469,-16565.25,-20544.56,512
3.982422,-16551.38,-20535.81,512
3.984375,-16561.93,-20547.98,512
3.986328,-16565.64,-20556.31,512
3.988281,-16546.43,-20539.32,512
3.990234,-16551.94,-20545.47,512
3.992188,-16553.98,-20543.46,512
3.994141,-16549.39,-20539.68,512
3.996094,-16552.86,-20543.59,512
3.998047,-16560.93,-20545.73,512
4,-16566.05,-20555.88,512
4.001953,-16568.18,-20566.02,512
4.003906,-16552.89,-20558.51,512
4.005859,-16550.54,-20553.94,512
4.007812,-16565.85,-20564.54,512
4.009766,-16557.11,-20555.58,512
4.011719,-16567.29,-20559.68,512
4.013672,-16567.47,-20551.65,512
4.015625,-16577.96,-20567.67,512
4.017578,-16569.24,-20564.42,512
4.019531,-16555.43,-20556.9,512
4.021484,-16582.25,-20575.61,512
4.023438,-16572.55,-20563.35,512
4.025391,-16571.1,-20568.15,512
4.027344,-16570.53,-20567.76,512
4.029297,-16557.52,-20560.88,512
4.03125,-16562.86,-20565.16,512
4.033203,-16554.67,-20548.13,512
4.035156,-16554.96,-20549.66,512
4.037109,-16563.69,-20560.14,512
4.039062,-16550.69,-20549.86,512
4.041016,-16551.89,-20552.81,512
4.042969,-16554.78,-20551.46,512
4.044922,-16559.48,-20549.33,512
4.046875,-16565.48,-20554.73,512
4.048828,-16557.88,-20553.84,512
4.050781,-16553.86,-20546.52,512
4.052734,-16551.79,-20547.52,512
4.054688,-16559.24,-20555.05,512
4.056641,-16559.72,-20559.9,512
4.058594,-16551.37,-20553.74,512
4.060547,-16553.35,-20550.3,512
4.0625,-16547.37,-20542.55,512
4.064453,-16553.95,-20546.25,512
4.066406,-16553.02,-20545.6,512
4.068359,-16556.6,-20547.88,512
4.070312,-16552.92,-20548.94,512
4.072266,-16554.12,-20553.65,512
4.074219,-16547.87,-20546.92,512
4.076172,-16540.7,-20545.69,512
4.078125,-16546.71,-20557.06,512
4.080078,-16551.39,-20556.21,512
4.082031,-16534.51,-20545.41,512
4.083984,-16543.82,-20554.18,512
4.085938,-16543.41,-20553.24,512
4.087891,-16544.91,-20560.08,512
4.089844,-16544.03,-20551.98,512
4.091797,-16550.59,-20548.74,512
4.09375,-16553.96,-20560.94,512
4.095703,-16558.62,-20566.87,512
4.097656,-16556.2,-20568.5,512
4.099609,-16551.87,-20563.51,512
4.101562,-16554.71,-20570.98,512
4.103516,-16552.6,-20573.32,512
4.105469,-16541.89,-20557.99,512
4.107422,-16541.25,-20550.3,512
4.109375,-16545.42,-20554.18,512
4.111328,-16545.92,-20554.25,512
4.113281,-16547.63,-20557.71,512
4.115234,-16551.76,-20559.91,512
4.117188,-16552.76,-20561.62,512
4.119141,-16543.84,-20556.19,512
4.121094,-16551.56,-20567.88,512
4.123047,-16550.24,-20560.95,512
4.125,-16558.18,-20560.34,512
4.126953,-16547.48,-20552.69,512
4.128906,-16542.24,-20546.63,512
4.130859,-16562.14,-20559.09,512
4.132812,-16562.86,-20568.77,512
4.134766,-16545.28,-20554.37,512
4.136719,-16540.77,-20556.62,512
4.138672,-16551.46,-20569.31,512
4.140625,-16544.71,-20554.78,512
4.142578,-16546.3,-20552.8,512
4.144531,-16546.75,-20548.69,512
4.146484,-16550.33,-20547.24,512
4.148438,-16544.58,-20539.77,512
4.150391,-16544.17,-20540.8,512
4.152344,-16546.68,-20548.72,512
4.154297,-16540.24,-20549.81,512
4.15625,-16532.08,-20544.71,512
4.158203,-16542.48,-20547.1,512
4.160156,-16539.81,-20543.6,512
4.162109,-16552.77,-20551.49,512
4.164062,-16548.46,-20552.65,512
4.166016,-16543.15,-20545.89,512
4.167969,-16547.14,-20549.28,512
4.169922,-16542.4,-20541.21,512
4.171875,-16546.52,-20543.76,512
4.173828,-16540.05,-20536.51,512
4.175781,-16533.02,-20532.93,512
4.177734,-16542.25,-20537.16,512
4.179688,-16533.19,-20531.14,512
4.181641,-16548.83,-20547.52,512
4.183594,-16540.69,-20536.38,512
4.185547,-16532.54,-20525.76,512
4.1875,-16536.37,-20537.59,512
4.189453,-16528.45,-20535.27,512
4.191406,-16534.01,-20542.4,512
4.193359,-16531.47,-20543.9,512
4.195312,-16528.22,-20539.4,512
4.197266,-16528.17,-20547.05,512
4.199219,-16520.18,-20539.92,512
4.201172,-16519.18,-20533.68,512
4.203125,-16517.74,-20535.57,512
4.205078,-16519.68,-20535.49,512
4.207031,-16523.96,-20541.69,512
4.208984,-16519.26,-20543.01,512
4.210938,-16510.7,-20544.87,512
4.212891,-16517.62,-20552.02,512
4.214844,-16518.06,-20554.35,512
4.216797,-16506.8,-20546.01,512
4.21875,-16513.16,-20550.38,512
4.220703,-16521.89,-20560.92,512
4.222656,-16523.79,-20566.07,512
4.224609,-16516.11,-20549.43,512
4.226562,-16508.86,-20549.03,512
4.228516,-16510.86,-20554.46,512
4.230469,-16509.72,-20560.12,512
4.232422,-16504.55,-20556.07,512
4.234375,-16509.05,-20566.47,512
4.236328,-16509.18,-20572.33,512
4.238281,-16498.39,-20562.94,512
4.240234,-16501.73,-20566.11,512
4.242188,-16509.01,-20570.26,512
4.244141,-16506.75,-20560.75,512
4.246094,-16507.88,-20554.31,512
4.248047,-16510.34,-20557.69,512
4.25,-16505.14,-20553.42,512
4.251953,-16498.44,-20551.84,512
4.253906,-16493.94,-20546.46,512
4.255859,-16493.2,-20546.92,512
4.257812,-16498.4,-20553.81,512
4.259766,-16505.58,-20552.93,512
4.261719,-16494.88,-20543.9,512
4.263672,-16502.96,-20550.42,512
4.265625,-16514.32,-20547.37,512
4.267578,-16517.76,-20542.21,512
4.269531,-16531.16,-20544.55,512
4.271484,-16531.3,-20535.57,512
4.273438,-16537.61,-20533.26,512
4.275391,-16551.28,-20539.31,512
4.277344,-16555.6,-20544.09,512
4.279297,-16554.4,-20544.24,512
4.28125,-16555.85,-20545.11,512
4.283203,-16558.78,-20546.08,512
4.285156,-16553.73,-20543.86,512
4.287109,-16547.84,-20540.69,512
4.289062,-16544.68,-20539.91,512
4.291016,-16555.03,-20554.24,512
4.292969,-16553.53,-20549.15,512
4.294922,-16548.55,-20543.26,512
4.296875,-16555.69,-20549.64,512
4.298828,-16557.17,-20548.65,512
4.300781,-16553.85,-20549.72,512
4.302734,-16551.55,-20543.91,512
4.304688,-16552.21,-20538.01,512
4.306641,-16556.2,-20543.08,512
4.308594,-16551.07,-20543.12,512
4.310547,-16555.53,-20543.28,512
4.3125,-16558.41,-20539.39,512
4.314453,-16568.62,-20540.89,512
4.316406,-16557.52,-20535.67,512
4.318359,-16548.88,-20532.44,512
4.320312,-16557.03,-20540.75,512
4.322266,-16553.1,-20532.06,512
4.324219,-16552.41,-20530.61,512
4.326172,-16552.31,-20527.17,512
4.328125,-16562.3,-20528.67,512
4.330078,-16555.52,-20522.8,512
4.332031,-16560.16,-20528.94,512
4.333984,-16555.87,-20531.17,512
4.335938,-16546.83,-20529,512
4.337891,-16551.87,-20534.38,512
4.339844,-16552.78,-20537.91,512
4.341797,-16552.26,-20533.02,512
4.34375,-16554.63,-20529.67,512
4.345703,-16562.14,-20531.96,512
4.347656,-16560.6,-20535.99,512
4.349609,-16564.65,-20549.59,512
4.351562,-16553.27,-20531.49,512
4.353516,-16556.44,-20530.17,512
4.355469,-16558.2,-20532.28,512
4.357422,-16566.34,-20535.9,512
4.359375,-16559.62,-20526.1,512
4.361328,-16552.05,-20519.52,512
4.363281,-16557.31,-20520.97,512
4.365234,-16553.51,-20523.97,512
4.367188,-16559.25,-20535.83,512
4.369141,-16550.43,-20526.67,512
4.371094,-16547.06,-20522.07,512
4.373047,-16540.67,-20515.87,512
4.375,-16542.61,-20517.13,512
4.376953,-16548.79,-20521.27,512
4.378906,-16540.2,-20516.87,512
4.380859,-16542,-20517.33,512
4.382812,-16535.12,-20511.83,512
4.384766,-16530.99,-20521.38,512
4.386719,-16524.04,-20526.35,512
4.388672,-16528.32,-20532.68,512
4.390625,-16528.78,-20533.93,512
4.392578,-16520.29,-20541.04,512
4.394531,-16509.64,-20538.86,512
4.396484,-16489.09,-20536.62,512
4.398438,-16464.68,-20529.72,512
4.400391,-16424.73,-20519.76,512
4.402344,-16408.66,-20519.01,512
4.404297,-16393.05,-20530.95,512
4.40625,-16382.7,-20537.29,512
4.408203,-16374.87,-20549.22,512
4.410156,-16401.16,-20558.1,512
4.412109,-16448.27,-20552.73,512
4.414062,-16478.3,-20544.89,512
4.416016,-16498.95,-20538.17,512
4.417969,-16525.24,-20528.24,512
4.419922,-16551.16,-20520.26,512
4.421875,-16571.32,-20506.12,512
4.423828,-16612.98,-20511.96,512
4.425781,-16648.53,-20516.63,512
4.427734,-16664.76,-20505.98,512
4.429688,-16686.77,-20505.64,512
4.431641,-16701.15,-20516.48,512
4.433594,-16702.1,-20518.2,512
4.435547,-16700.56,-20522.69,512
4.4375,-16691.48,-20527.47,512
4.439453,-16675.19,-20523.3,512
4.441406,-16662.96,-20524.66,512
4.443359,-16643.28,-20517.2,512
4.445312,-16619.23,-20496.57,512
4.447266,-16609.53,-20497.03,512
4.449219,-16599.99,-20492.28,512
4.451172,-16586.72,-20484.74,512
4.453125,-16581.16,-20489.98,512
4.455078,-16568.62,-20491.01,512
4.457031,-16559.67,-20489.01,512
4.458984,-16550.72,-20488.95,512
4.460938,-16546.51,-20490.25,512
4.462891,-16548.38,-20491.86,512
4.464844,-16549.92,-20495.15,512
4.466797,-16549.33,-20494.37,512
4.46875,-16541.99,-20490.28,512
4.470703,-16544.27,-20498.97,512
4.472656,-16541.44,-20504.76,512
4.474609,-16538.27,-20501.35,512
4.476562,-16541.82,-20504.23,512
4.478516,-16539.93,-20500.44,512
4.480469,-16553.03,-20507.52,512
4.482422,-16548.66,-20502.46,512
4.484375,-16542.99,-20505.16,512
4.486328,-16545.93,-20514.21,512
4.488281,-16541.66,-20507.22,512
4.490234,-16543.71,-20500.57,512
4.492188,-16540.9,-20496.66,512
4.494141,-16539.38,-20498.79,512
4.496094,-16548.4,-20507.67,512
4.498047,-16536.44,-20497.07,512
4.5,-16544.42,-20501.75,512
4.501953,-16552.71,-20513.91,512
4.503906,-16545.74,-20517.54,512
4.505859,-16538.38,-20509.1,512
4.507812,-16532.48,-20502.75,512
4.509766,-16536.52,-20496.92,512
4.511719,-16545.58,-20499.55,512
4.513672,-16542.01,-20497.6,512
4.515625,-16540.36,-20499.23,512
4.517578,-16536.4,-20491.65,512
4.519531,-16535.83,-20493.4,512
4.521484,-16536.3,-20491.28,512
4.523438,-16525.79,-20483.97,512
4.525391,-16523.89,-20484.62,512
4.527344,-16526.46,-20487.46,512
4.529297,-16525.95,-20478.98,512
4.53125,-16529.23,-20480.11,512
4.533203,-16518.54,-20479.31,512
4.535156,-16517.21,-20476.49,512
4.537109,-16520.78,-20485.38,512
4.539062,-16519.69,-20487.57,512
4.541016,-16515.26,-20475.61,512
4.542969,-16519.82,-20476.99,512
4.544922,-16517.34,-20471.58,512
4.546875,-16510.88,-20464.99,512
4.548828,-16524.23,-20475.57,512
4.550781,-16520.13,-20476.8,512
4.552734,-16509.24,-20467.84,512
4.554688,-16522.01,-20478.69,512
4.556641,-16518.99,-20481.28,512
4.558594,-16521.09,-20474.32,512
4.560547,-16533.95,-20485.27,512
4.5625,-16533.86,-20485.62,512
4.564453,-16529.89,-20480.38,512
4.566406,-16528.23,-20479.04,512
4.568359,-16516.64,-20476.67,512
4.570312,-16529.07,-20491.36,512
4.572266,-16522.58,-20486.93,512
4.574219,-16521.42,-20488.88,512
4.576172,-16529.61,-20492.85,512
4.578125,-16526.46,-20488.33,512
4.580078,-16524.46,-20482.42,512
4.582031,-16529.95,-20487.77,512
4.583984,-16528.73,-20490.77,512
4.585938,-16523.22,-20491.31,512
4.587891,-16523.81,-20492.27,512
4.589844,-16519.55,-20491.06,512
4.591797,-16521.02,-20488.34,512
4.59375,-16525.87,-20482.41,512
4.595703,-16524.49,-20480.38,512
4.597656,-16527.3,-20490.04,512
4.599609,-16526.24,-20490.4,512
4.601562,-16514.73,-20483.78,512
4.603516,-16506.71,-20479.35,512
4.605469,-16513.38,-20485.98,512
4.607422,-16501.07,-20474.16,512
4.609375,-16496.79,-20468.84,512
4.611328,-16498.92,-20468.88,512
4.613281,-16505.56,-20475.82,512
4.615234,-16506.62,-20478.7,512
4.617188,-16499.94,-20474.11,512
4.619141,-16497.01,-20468.44,512
4.621094,-16494.54,-20466.93,512
4.623047,-16494.8,-20468.68,512
4.625,-16504.95,-20483.37,512
4.626953,-16500.49,-20487.43,512
4.628906,-16501.04,-20479.03,512
4.630859,-16504.03,-20480.48,512
4.632812,-16495.59,-20479.94,512
4.634766,-16495.28,-20483.04,512
4.636719,-16497.36,-20484.67,512
4.638672,-16492.48,-20479.07,512
4.640625,-16498.39,-20479.64,512
4.642578,-16494.28,-20478.25,512
4.644531,-16490.28,-20477.38,512
4.646484,-16492.58,-20477,512
4.648438,-16491.11,-20478.1,512
4.650391,-16486.51,-20475.01,512
4.652344,-16482.32,-20471.81,512
4.654297,-16484.27,-20470.33,512
4.65625,-16483.61,-20476.6,512
4.658203,-16478.62,-20474.57,512
4.660156,-16473.54,-20470.35,512
4.662109,-16475.94,-20474.23,512
4.664062,-16469.69,-20465.7,512
4.666016,-16469.6,-20471.18,512
4.667969,-16482.85,-20485.42,512
4.669922,-16471.07,-20481.77,512
4.671875,-16470.99,-20486.47,512
4.673828,-16475.85,-20489.99,512
4.675781,-16474.58,-20487.85,512
4.677734,-16480.32,-20489.34,512
4.679688,-16471.86,-20489.06,512
4.681641,-16469.71,-20489.68,512
4.683594,-16462.29,-20487.28,512
4.685547,-16460.96,-20487.74,512
4.6875,-16460.76,-20489.38,512
4.689453,-16449.71,-20481.31,512
4.691406,-16452.34,-20482.61,512
4.693359,-16441.93,-20473.77,512
4.695312,-16436.51,-20465.47,512
4.697266,-16448.05,-20471.29,512
4.699219,-16444.17,-20464.23,512
4.701172,-16447.24,-20464.57,512
4.703125,-16435.77,-20458.38,512
4.705078,-16445.76,-20463.53,512
4.707031,-16444.38,-20459.11,512
4.708984,-16448.72,-20456.44,512
4.710938,-16454.81,-20452.91,512
4.712891,-16453.68,-20445.83,512
4.714844,-16453.51,-20433.37,512
4.716797,-16467.66,-20452.14,512
4.71875,-16469.02,-20449.69,512
4.720703,-16462.74,-20442,512
4.722656,-16466.54,-20449.87,512
4.724609,-16471.44,-20446.44,512
4.726562,-16476.59,-20449.59,512
4.728516,-16483.23,-20452.32,512
4.730469,-16484.21,-20450.2,512
4.732422,-16489.75,-20455.01,512
4.734375,-16486.25,-20446.66,512
4.736328,-16486.69,-20447.37,512
4.738281,-16502.12,-20458.95,512
4.740234,-16502.71,-20456.35,512
4.742188,-16512.77,-20465.8,512
4.744141,-16508.47,-20463.11,512
4.746094,-16515.6,-20465.14,512
4.748047,-16515.98,-20459.81,512
4.75,-16511.18,-20455.94,512
4.751953,-16511.58,-20459.05,512
4.753906,-16513.02,-20461.05,512
4.755859,-16516.84,-20466.48,512
4.757812,-16508.16,-20461.3,512
4.759766,-16520.04,-20469.83,512
4.761719,-16512.35,-20456.29,512
4.763672,-16516.46,-20453.16,512
4.765625,-16513.84,-20457.08,512
4.767578,-16498.22,-20445.04,512
4.769531,-16512.24,-20454.24,512
4.771484,-16509.73,-20455.91,512
4.773438,-16516.54,-20463.91,512
4.775391,-16516.08,-20461.55,512
4.777344,-16512.99,-20457.59,512
4.779297,-16515.55,-20454.36,512
4.78125,-16530.3,-20464.67,512
4.783203,-16523.45,-20454.38,512
4.785156,-16525.28,-20454.27,512
4.787109,-16524.28,-20451.39,512
4.789062,-16523.43,-20448.62,512
4.791016,-16528.29,-20451.52,512
4.792969,-16537.63,-20458.12,512
4.794922,-16535.53,-20458.11,512
4.796875,-16531.67,-20458.03,512
4.798828,-16529.44,-20452.2,512
4.800781,-16522.83,-20445.86,512
4.802734,-16530.55,-20452.71,512
4.804688,-16525.53,-20441.69,512
4.806641,-16527.81,-20448.56,512
4.808594,-16535.76,-20456.71,512
4.810547,-16537.79,-20455.55,512
4.8125,-16542.27,-20457.25,512
4.814453,-16538.47,-20453.11,512
4.816406,-16539.97,-20456.49,512
4.818359,-16537.29,-20456.06,512
4.820312,-16543.08,-20469.29,512
4.822266,-16538.38,-20467.58,512
4.824219,-16538.56,-20470.28,512
4.826172,-16544.5,-20473.73,512
4.828125,-16533.28,-20465.45,512
4.830078,-16531.04,-20457.62,512
4.832031,-16539.03,-20469.89,512
4.833984,-16517.42,-20451.21,512
4.835938,-16516.16,-20454.06,512
4.837891,-16523.61,-20464,512
4.839844,-16517.31,-20451.56,512
4.841797,-16524.2,-20456.97,512
4.84375,-16522.2,-20453.22,512
4.845703,-16516.13,-20439.59,512
4.847656,-16522.64,-20453.1,512
4.849609,-16521.43,-20450.18,512
4.851562,-16528.47,-20457.12,512
4.853516,-16522.42,-20453.57,512
4.855469,-16517.92,-20458.76,512
4.857422,-16521.4,-20465.44,512
4.859375,-16512.61,-20447.2,512
4.861328,-16521.54,-20449.79,512
4.863281,-16510.51,-20437.69,512
4.865234,-16508.66,-20440.49,512
4.867188,-16517.24,-20454.41,512
4.869141,-16499.5,-20435.21,512
4.871094,-16488.09,-20425.62,512
4.873047,-16500.95,-20444.16,512
4.875,-16512.96,-20452.82,512
4.876953,-16511.11,-20445.25,512
4.878906,-16513.57,-20445.06,512
4.880859,-16510.67,-20433.73,512
4.882812,-16512.18,-20435.69,512
4.884766,-16504.88,-20431.6,512
4.886719,-16508.36,-20441.95,512
4.888672,-16518.83,-20460.47,512
4.890625,-16507.38,-20452.46,512
4.892578,-16506.37,-20449.89,512
4.894531,-16514.82,-20450.98,512
4.896484,-16510.74,-20445.15,512
4.898438,-16522.67,-20452.31,512
4.900391,-16518.29,-20448.12,512
4.902344,-16519.74,-20447.72,512
4.904297,-16518.05,-20444.9,512
4.90625,-16526.21,-20447.76,512
4.908203,-16526.5,-20447.6,512
4.910156,-16512.41,-20440.05,512
4.912109,-16517.85,-20439.06,512
4.914062,-16515.55,-20435.08,512
4.916016,-16519.37,-20442.24,512
4.917969,-16509.13,-20438.05,512
4.919922,-16510.97,-20446.39,512
4.921875,-16514.52,-20449.32,512
4.923828,-16512.17,-20448.5,512
4.925781,-16529.44,-20458.96,512
4.927734,-16527.25,-20459.41,512
4.929688,-16524.03,-20456.83,512
4.931641,-16534.34,-20460.53,512
4.933594,-16525.5,-20462.69,512
4.935547,-16517.64,-20461.34,512
4.9375,-16518.7,-20458.13,512
4.939453,-16517.33,-20460.04,512
4.941406,-16511.7,-20452.21,512
4.943359,-16506.36,-20439.07,512
4.945312,-16509.55,-20434.3,512
4.947266,-16520,-20446.09,512
4.949219,-16519.16,-20450.89,512
4.951172,-16519.83,-20452.33,512
4.953125,-16507.52,-20444.15,512
4.955078,-16515.08,-20452.22,512
4.957031,-16508.57,-20447.62,512
4.958984,-16516.36,-20456.18,512
4.960938,-16523.65,-20459.33,512
4.962891,-16504.97,-20443.13,512
4.964844,-16516.57,-20451.98,512
4.966797,-16518.48,-20451.85,512
4.96875,-16513.89,-20448.14,512
4.970703,-16528.78,-20457.88,512
4.972656,-16525.23,-20453.41,512
4.974609,-16521.09,-20449.37,512
4.976562,-16524.9,-20452.81,512
4.978516,-16529.5,-20454.6,512
4.980469,-16525.77,-20448.65,512
4.982422,-16523.88,-20448.05,512
4.984375,-16521.19,-20449.88,512
4.986328,-16517.37,-20447.35,512
4.988281,-16516.69,-20444.96,512
4.990234,-16511.1,-20436.99,512
4.992188,-16519.51,-20439.61,512
4.994141,-16519.2,-20433.58,512
4.996094,-16525.68,-20441.44,512
4.998047,-16529.3,-20449.14,512
5,-16518.01,-20440.31,512
5.001953,-16512.84,-20437.17,512
5.003906,-16516.74,-20440.06,512
5.005859,-16513.52,-20437.12,512
5.007812,-16517.14,-20441.04,512
5.009766,-16523.1,-20435.72,512
5.011719,-16530.26,-20443.38,512
5.013672,-16521.46,-20430.54,512
5.015625,-16519.85,-20433.4,512
5.017578,-16517.96,-20435.77,512
5.019531,-16513.71,-20432.41,512
5.021484,-16516.86,-20438.19,512
5.023438,-16512.19,-20429.04,512
5.025391,-16515.04,-20426.98,512
5.027344,-16515.68,-20424.43,512
5.029297,-16519.4,-20425.23,512
5.03125,-16521.07,-20432.31,512
5.033203,-16520.9,-20433.72,512
5.035156,-16512.68,-20429.81,512
5.037109,-16519.9,-20437.64,512
5.039062,-16514.6,-20434.69,512
5.041016,-16521.58,-20442.49,512
5.042969,-16520.92,-20440.58,512
5.044922,-16524.6,-20446.7,512
5.046875,-16529.66,-20444.56,512
5.048828,-16522.65,-20440.85,512
5.050781,-16521.19,-20439.54,512
5.052734,-16516.43,-20441.75,512
5.054688,-16510.3,-20433.99,512
5.056641,-16507.12,-20433.92,512
5.058594,-16514.22,-20442.96,512
5.060547,-16514.08,-20437.16,512
5.0625,-16520.61,-20439.55,512
5.064453,-16516.45,-20438.34,512
5.066406,-16520.32,-20437.64,512
5.068359,-16510.91,-20433.21,512
5.070312,-16513.78,-20440.32,512
5.072266,-16521.87,-20445.56,512
5.074219,-16525.19,-20444.95,512
5.076172,-16519.99,-20437.61,512
5.078125,-16529.96,-20442.96,512
5.080078,-16521.27,-20436,512
5.082031,-16521.39,-20439.29,512
5.083984,-16528.83,-20449.95,512
5.085938,-16521.72,-20445.65,512
5.087891,-16525.52,-20456.78,512
5.089844,-16535.39,-20465.83,512
5.091797,-16528.33,-20458.14,512
5.09375,-16531.37,-20449.32,512
5.095703,-16536.62,-20450.99,512
5.097656,-16517.88,-20434.8,512
5.099609,-16526.4,-20447.47,512
5.101562,-16525.99,-20453.34,512
5.103516,-16514.9,-20442.59,512
5.105469,-16523.95,-20459.88,512
5.107422,-16510.73,-20450.86,512
5.109375,-16513.68,-20443.07,512
5.111328,-16511.51,-20431.11,512
5.113281,-16512.73,-20434.56,512
5.115234,-16518.11,-20442.76,512
5.117188,-16516.84,-20439.48,512
5.119141,-16519.21,-20438.5,512
5.121094,-16511.82,-20434.54,512
5.123047,-16516.52,-20442.38,512
5.125,-16519.83,-20445.08,512
5.126953,-16513.38,-20442.64,512
5.128906,-16516.78,-20446.07,512
5.130859,-16523.69,-20454.61,512
5.132812,-16521.73,-20453.4,512
5.134766,-16528.98,-20463.26,512
5.136719,-16524.33,-20458.62,512
5.138672,-16526.93,-20464.88,512
5.140625,-16516.73,-20455.83,512
5.142578,-16513.95,-20455.65,512
5.144531,-16509.38,-20440.18,512
5.146484,-16507.07,-20431.71,512
5.148438,-16511.14,-20431,512
5.150391,-16505.33,-20432.67,512
5.152344,-16512.88,-20444.39,512
5.154297,-16509.74,-20443.81,512
5.15625,-16507.06,-20439.66,512
5.158203,-16508.63,-20442.72,512
5.160156,-16511.92,-20450.3,512
5.162109,-16510.71,-20446.16,512
5.164062,-16514.03,-20446.44,512
5.166016,-16509.35,-20443.23,512
5.167969,-16500.25,-20432.78,512
5.169922,-16510.08,-20441.03,512
5.171875,-16501.98,-20433.43,512
5.173828,-16499.57,-20426.63,512
5.175781,-16499.03,-20429.77,512
5.177734,-16500.7,-20428.6,512
5.179688,-16500.64,-20428.51,512
5.181641,-16504.28,-20435.79,512
5.183594,-16501.54,-20435.1,512
5.185547,-16504.7,-20441.36,512
5.1875,-16495.51,-20431.38,512
5.189453,-16493.31,-20426.83,512
5.191406,-16487.83,-20418.42,512
5.193359,-16502.23,-20429.69,512
5.195312,-16496.24,-20425.14,512
5.197266,-16483.04,-20406.9,512
5.199219,-16493.32,-20421.24,512
5.201172,-16506.67,-20436.89,512
5.203125,-16500.11,-20426.33,512
5.205078,-16504.9,-20431.78,512
5.207031,-16506.12,-20434.32,512
5.208984,-16514.98,-20443.33,512
5.210938,-16521.2,-20446.04,512
5.212891,-16520.97,-20440.52,512
5.214844,-16519.36,-20440.74,512
5.216797,-16526.12,-20449.3,512
5.21875,-16522.46,-20449.49,512
5.220703,-16522.49,-20446.34,512
5.222656,-16517.7,-20446.45,512
5.224609,-16517.87,-20446.04,512
5.226562,-16516.11,-20439.14,512
5.228516,-16520.54,-20438.17,512
5.230469,-16523.91,-20441.68,512
5.232422,-16517.02,-20438.37,512
5.234375,-16522.1,-20448,512
5.236328,-16518.21,-20446.81,512
5.238281,-16510.3,-20437.62,512
5.240234,-16511.01,-20438.68,512
5.242188,-16510.96,-20437.59,512
5.244141,-16504.34,-20432.68,512
5.246094,-16507.82,-20440.99,512
5.248047,-16508.12,-20435.67,512
5.25,-16512.2,-20447.34,512
5.251953,-16513.14,-20449.01,512
5.253906,-16508.58,-20440.14,512
5.255859,-16510.08,-20438.25,512
5.257812,-16514.32,-20444.76,512
5.259766,-16515.57,-20438.79,512
5.261719,-16514.41,-20435.84,512
5.263672,-16517.08,-20442.64,512
5.265625,-16507.94,-20428.47,512
5.267578,-16507.83,-20422.27,512
5.269531,-16514.03,-20446.51,512
5.271484,-16506.8,-20436.05,512
5.273438,-16512.58,-20442.87,512
5.275391,-16511.29,-20442.28,512
5.277344,-16506.12,-20434.92,512
5.279297,-16521.69,-20447.88,512
5.28125,-16515.72,-20447.53,512
5.283203,-16512.04,-20442.74,512
5.285156,-16513.01,-20442.87,512
5.287109,-16496.82,-20430.53,512
5.289062,-16498.37,-20434.54,512
5.291016,-16491.8,-20423.55,512
5.292969,-16495.53,-20425.26,512
5.294922,-16493.74,-20422.4,512
5.296875,-16500.49,-20428.97,512
5.298828,-16500.76,-20428.51,512
5.300781,-16494.63,-20425.31,512
5.302734,-16503.16,-20440.95,512
5.304688,-16491.15,-20428.92,512
5.306641,-16484.92,-20424.64,512
5.308594,-16500.09,-20440.05,512
5.310547,-16502.57,-20444.02,512
5.3125,-16502.37,-20447.84,512
5.314453,-16495.37,-20444.57,512
5.316406,-16496.62,-20447.67,512
5.318359,-16493.84,-20449.57,512
5.320312,-16492.45,-20451.63,512
5.322266,-16483.24,-20453.62,512
5.324219,-16479.31,-20456.29,512
5.326172,-16471.29,-20451.74,512
5.328125,-16472.4,-20454.29,512
5.330078,-16471.27,-20460.96,512
5.332031,-16480.71,-20467.24,512
5.333984,-16478.59,-20461.87,512
5.335938,-16475.63,-20457.6,512
5.337891,-16481.2,-20461.01,512
5.339844,-16477.26,-20455.16,512
5.341797,-16473.97,-20445.78,512
5.34375,-16478.47,-20446.62,512
5.345703,-16475.56,-20438.7,512
5.347656,-16469.47,-20433.92,512
5.349609,-16468.99,-20436.69,512
5.351562,-16471.88,-20437.68,512
5.353516,-16468.66,-20432.32,512
5.355469,-16470.74,-20431.07,512
5.357422,-16481.17,-20436.94,512
5.359375,-16488.82,-20429.92,512
5.361328,-16499.01,-20429.07,512
5.363281,-16499.91,-20420.61,512
5.365234,-16504.29,-20413.48,512
5.367188,-16515.12,-20423.71,512
5.369141,-16505.05,-20415.33,512
5.371094,-16500.87,-20416.54,512
5.373047,-16498.21,-20414.09,512
5.375,-16505.98,-20414.45,512
5.376953,-16508.47,-20412.3,512
5.378906,-16510.42,-20418.08,512
5.380859,-16523.33,-20428.57,512
5.382812,-16512.87,-20419.48,512
5.384766,-16516.34,-20427.46,512
5.386719,-16517.56,-20430.82,512
5.388672,-16518.5,-20426.73,512
5.390625,-16514.04,-20426.63,512
5.392578,-16525.59,-20436.81,512
5.394531,-16511.36,-20421.39,512
5.396484,-16518.55,-20431.24,512
5.398438,-16520.68,-20430.85,512
5.400391,-16513,-20420.84,512
5.402344,-16513.64,-20421.29,512
5.404297,-16514.31,-20426.16,512
5.40625,-16513.46,-20426.59,512
5.408203,-16513.83,-20422.65,512
5.410156,-16513.05,-20413.18,512
5.412109,-16515.9,-20411.53,512
5.414062,-16520.25,-20411.74,512
5.416016,-16518.53,-20411.19,512
5.417969,-16519.04,-20412.04,512
5.419922,-16509.43,-20402.97,512
5.421875,-16508.16,-20405.75,512
5.423828,-16520.39,-20418.67,512
5.425781,-16518.67,-20417.29,512
5.427734,-16512.64,-20410.82,512
5.429688,-16521.21,-20417.64,512
5.431641,-16506.09,-20407.16,512
5.433594,-16518.7,-20415.49,512
5.435547,-16524.03,-20425.96,512
5.4375,-16512.25,-20415.55,512
5.439453,-16518.39,-20414.03,512
5.441406,-16516.72,-20404.34,512
5.443359,-16514.84,-20395.04,512
5.445312,-16511.09,-20388.61,512
5.447266,-16502.53,-20386.59,512
5.449219,-16504.26,-20389.18,512
5.451172,-16491.46,-20379.93,512
5.453125,-16476.11,-20368.34,512
5.455078,-16491.2,-20376.57,512
5.457031,-16493.47,-20378.84,512
5.458984,-16485.33,-20374.04,512
5.460938,-16488.7,-20381,512
5.462891,-16498.26,-20395.08,512
5.464844,-16494.38,-20398.21,512
5.466797,-16487.95,-20392.24,512
5.46875,-16481.75,-20392.41,512
5.470703,-16487.67,-20403.43,512
5.472656,-16491.22,-20408.05,512
5.474609,-16479.95,-20405.11,512
5.476562,-16474.9,-20402.05,512
5.478516,-16476.47,-20410.77,512
5.480469,-16462.36,-20405.6,512
5.482422,-16455.52,-20411.42,512
5.484375,-16441.25,-20406.8,512
5.486328,-16415.35,-20398.29,512
5.488281,-16391.34,-20405.46,512
5.490234,-16370.62,-20401.21,512
5.492188,-16354.92,-20408.8,512
5.494141,-16331.81,-20423.31,512
5.496094,-16323.69,-20431.53,512
5.498047,-16343.83,-20444.85,512
5.5,-16383.98,-20437.61,512
5.501953,-16416.63,-20425.12,512
5.503906,-16433.72,-20415.14,512
5.505859,-16461.57,-20410.6,512
5.507812,-16498.32,-20407.79,512
5.509766,-16526.51,-20398.55,512
5.511719,-16570.16,-20401.08,512
5.513672,-16591.6,-20388.95,512
5.515625,-16618.64,-20388.16,512
5.517578,-16646.07,-20396.89,512
5.519531,-16649.72,-20393.03,512
5.521484,-16663.68,-20402.65,512
5.523438,-16641.47,-20387.41,512
5.525391,-16638.22,-20384.56,512
5.527344,-16630.93,-20387.78,512
5.529297,-16612.62,-20372.9,512
5.53125,-16602.37,-20375.34,512
5.533203,-16586.3,-20373.04,512
5.535156,-16569.88,-20365.24,512
5.537109,-16549.79,-20353.05,512
5.539062,-16542.88,-20353.32,512
5.541016,-16534.89,-20352.5,512
5.542969,-16522.79,-20345.98,512
5.544922,-16518.67,-20355.51,512
5.546875,-16513.8,-20366.02,512
5.548828,-16503.88,-20358.48,512
5.550781,-16493.32,-20355.39,512
5.552734,-16491.17,-20355.37,512
5.554688,-16494.98,-20368.79,512
5.556641,-16491.66,-20365.5,512
5.558594,-16500.98,-20371.1,512
5.560547,-16500.69,-20372.06,512
5.5625,-16500.44,-20367.17,512
5.564453,-16506.43,-20376.91,512
5.566406,-16501.54,-20372.33,512
5.568359,-16495.35,-20367.46,512
5.570312,-16494.88,-20366.45,512
5.572266,-16501.68,-20378.02,512
5.574219,-16498.68,-20374.88,512
5.576172,-16498.85,-20373.53,512
5.578125,-16510.03,-20377.73,512
5.580078,-16504.71,-20370.96,512
5.582031,-16499.36,-20366.71,512
5.583984,-16502.02,-20373.1,512
5.585938,-16503.96,-20378.98,512
5.587891,-16498,-20368.72,512
5.589844,-16496.39,-20366.61,512
5.591797,-16504.19,-20374.01,512
5.59375,-16497.19,-20369.44,512
5.595703,-16493.95,-20370.15,512
5.597656,-16507.12,-20377.18,512
5.599609,-16499.68,-20369.02,512
5.601562,-16492.07,-20364.76,512
5.603516,-16491.32,-20370.15,512
5.605469,-16496.32,-20375.86,512
5.607422,-16488.54,-20367.11,512
5.609375,-16488.81,-20362.41,512
5.611328,-16496.24,-20372.59,512
5.613281,-16484.41,-20369.34,512
5.615234,-16487.21,-20363.36,512
5.617188,-16487.65,-20365.3,512
5.619141,-16482.96,-20364.64,512
5.621094,-16480.6,-20362.44,512
5.623047,-16482.98,-20364.29,512
5.625,-16475.32,-20352.98,512
5.626953,-16478.18,-20354.73,512
5.628906,-16490.02,-20367.77,512
5.630859,-16481.59,-20357.23,512
5.632812,-16484.38,-20362.53,512
5.634766,-16485.13,-20363.74,512
5.636719,-16494.42,-20368.76,512
5.638672,-16487.88,-20364.05,512
5.640625,-16482.04,-20355.39,512
5.642578,-16495.42,-20363.5,512
5.644531,-16490.51,-20354.73,512
5.646484,-16487.45,-20350.37,512
5.648438,-16482.14,-20349.52,512
5.650391,-16476.82,-20345.14,512
5.652344,-16485.19,-20362.85,512
5.654297,-16475.72,-20358.73,512
5.65625,-16475.12,-20357.2,512
5.658203,-16487.91,-20372.57,512
5.660156,-16490.94,-20373.53,512
5.662109,-16486.79,-20359.74,512
5.664062,-16479.09,-20354.79,512
5.666016,-16487.55,-20360.08,512
5.667969,-16483.66,-20362.34,512
5.669922,-16483.62,-20363.17,512
5.671875,-16481.93,-20358.22,512
5.673828,-16487.51,-20361.31,512
5.675781,-16492.2,-20363.16,512
5.677734,-16486.83,-20353.14,512
5.679688,-16489.8,-20359.9,512
5.681641,-16490.79,-20355,512
5.683594,-16482.65,-20346.34,512
5.685547,-16482.79,-20338.62,512
5.6875,-16469.72,-20333.72,512
5.689453,-16474.45,-20339.7,512
5.691406,-16480.32,-20342.23,512
5.693359,-16475.84,-20338.18,512
5.695312,-16476.18,-20341.21,512
5.697266,-16474.25,-20340.16,512
5.699219,-16474.53,-20345.04,512
5.701172,-16471.29,-20346.51,512
5.703125,-16459.75,-20339.27,512
5.705078,-16457.63,-20344.53,512
5.707031,-16463.02,-20344.86,512
5.708984,-16463.65,-20338.27,512
5.710938,-16473.81,-20351.25,512
5.712891,-16465.63,-20337.02,512
5.714844,-16471.32,-20340.81,512
5.716797,-16471.26,-20346.49,512
5.71875,-16473.82,-20349,512
5.720703,-16472.12,-20352.64,512
5.722656,-16468.39,-20359.54,512
5.724609,-16458.87,-20349.93,512
5.726562,-16457.02,-20348.28,512
5.728516,-16463.96,-20361.25,512
5.730469,-16458.49,-20361.12,512
5.732422,-16459.23,-20354.26,512
5.734375,-16456.3,-20363.23,512
5.736328,-16453.47,-20369.4,512
5.738281,-16444.95,-20362.56,512
5.740234,-16443.48,-20368.4,512
5.742188,-16449.87,-20367.37,512
5.744141,-16442.28,-20357.27,512
5.746094,-16448.54,-20359.62,512
5.748047,-16443.78,-20354.79,512
5.75,-16436.49,-20351.39,512
5.751953,-16434.63,-20356.15,512
5.753906,-16430.76,-20352.09,512
5.755859,-16430.35,-20351.38,512
5.757812,-16434.63,-20353.3,512
5.759766,-16429.44,-20340.05,512
5.761719,-16418.63,-20330.16,512
5.763672,-16431.32,-20338.11,512
5.765625,-16434.91,-20337.06,512
5.767578,-16424.62,-20337.75,512
5.769531,-16428.89,-20348.55,512
5.771484,-16425.12,-20335.91,512
5.773438,-16418.67,-20335.04,512
5.775391,-16427.17,-20334.58,512
5.777344,-16433.07,-20335.83,512
5.779297,-16430.4,-20329.79,512
5.78125,-16422.52,-20325.33,512
5.783203,-16419.9,-20325.39,512
5.785156,-16423.75,-20335.5,512
5.787109,-16412.11,-20331.01,512
5.789062,-16409.39,-20328.32,512
5.791016,-16411.52,-20332.55,512
5.792969,-16410.91,-20327.54,512
5.794922,-16409.18,-20318.38,512
5.796875,-16414.61,-20323.9,512
5.798828,-16427.31,-20336.24,512
5.800781,-16425.12,-20331.67,512
5.802734,-16433.11,-20340.83,512
5.804688,-16438.15,-20342.24,512
5.806641,-16434.67,-20337.47,512
5.808594,-16446.63,-20340.89,512
5.810547,-16452.72,-20337.42,512
5.8125,-16454.3,-20333.45,512
5.814453,-16449.5,-20329.12,512
5.816406,-16453.6,-20335.25,512
5.818359,-16451.01,-20331.76,512
5.820312,-16455.11,-20331.26,512
5.822266,-16460.94,-20335.13,512
5.824219,-16478.45,-20343.39,512
5.826172,-16479.07,-20335.78,512
5.828125,-16476.54,-20323.45,512
5.830078,-16483.52,-20328.45,512
5.832031,-16489.32,-20331.55,512
5.833984,-16490.5,-20334.17,512
5.835938,-16494.63,-20334.63,512
5.837891,-16492.65,-20333.04,512
5.839844,-16489.66,-20329.79,512
5.841797,-16488.75,-20324.46,512
5.84375,-16498.22,-20327.22,512
5.845703,-16513.05,-20337.18,512
5.847656,-16514.17,-20331.29,512
5.849609,-16509.1,-20328.62,512
5.851562,-16510.95,-20332.81,512
5.853516,-16499.62,-20322.51,512
5.855469,-16501.07,-20326.4,512
5.857422,-16495.63,-20316.97,512
5.859375,-16499.69,-20319.85,512
5.861328,-16500.25,-20319.63,512
5.863281,-16492.83,-20311.24,512
5.865234,-16489.62,-20313.65,512
5.867188,-16493.67,-20317.83,512
5.869141,-16497.29,-20323.23,512
5.871094,-16498.25,-20322.28,512
5.873047,-16496.76,-20323.28,512
5.875,-16506.28,-20336.5,512
5.876953,-16501.8,-20333.15,512
5.878906,-16503.57,-20335.24,512
5.880859,-16492.98,-20318.37,512
5.882812,-16495.55,-20321.04,512
5.884766,-16499.6,-20334.09,512
5.886719,-16491.29,-20322.93,512
5.888672,-16490.57,-20327.13,512
5.890625,-16493.05,-20329.88,512
5.892578,-16498.32,-20334.15,512
5.894531,-16492.84,-20329.44,512
5.896484,-16496.49,-20327.8,512
5.898438,-16498.18,-20324.52,512
5.900391,-16496.35,-20320.25,512
5.902344,-16491.12,-20325.75,512
5.904297,-16497.76,-20332.84,512
5.90625,-16496.4,-20330.15,512
5.908203,-16490.04,-20315.41,512
5.910156,-16502.81,-20324.5,512
5.912109,-16498.13,-20313.36,512
5.914062,-16504.89,-20315.93,512
5.916016,-16505.03,-20316.74,512
5.917969,-16497.4,-20309.2,512
5.919922,-16505.57,-20318.54,512
5.921875,-16510.14,-20324.25,512
5.923828,-16501.01,-20310.59,512
5.925781,-16500.89,-20304.27,512
5.927734,-16506.44,-20306.4,512
5.929688,-16512.68,-20309.02,512
5.931641,-16518.13,-20321.18,512
5.933594,-16512.46,-20311.96,512
5.935547,-16516.33,-20317.99,512
5.9375,-16513.44,-20314,512
5.939453,-16515.36,-20318.22,512
5.941406,-16513.09,-20315.38,512
5.943359,-16520.36,-20315.93,512
5.945312,-16515.38,-20309.22,512
5.947266,-16514.7,-20307.44,512
5.949219,-16499.27,-20291.3,512
5.951172,-16504.61,-20305.76,512
5.953125,-16493.64,-20297.67,512
5.955078,-16499.27,-20307.97,512
5.957031,-16498.36,-20317.18,512
5.958984,-16495.74,-20311.57,512
5.960938,-16502.35,-20308.96,512
5.962891,-16501.19,-20305.71,512
5.964844,-16503.89,-20304.41,512
5.966797,-16511.32,-20311.43,512
5.96875,-16500.91,-20306.05,512
5.970703,-16498.6,-20308.77,512
5.972656,-16487.32,-20292.49,512
5.974609,-16494.29,-20295.36,512
5.976562,-16477.49,-20284.83,512
5.978516,-16484.05,-20288,512
5.980469,-16498.99,-20295.99,512
5.982422,-16500.64,-20300.38,512
5.984375,-16504.98,-20311.17,512
5.986328,-16491.33,-20296.29,512
5.988281,-16498.51,-20308.83,512
5.990234,-16493.58,-20301.6,512
5.992188,-16505.81,-20307.17,512
5.994141,-16506.16,-20304.04,512
5.996094,-16505.96,-20304.69,512
5.998047,-16514.35,-20311.45,512
6,-16509.52,-20313.35,512
6.001953,-16511.33,-20319.14,512
6.003906,-16508.29,-20318.73,512
6.005859,-16509.01,-20314.79,512
6.007812,-16509.69,-20310.46,512
6.009766,-16510.15,-20310.82,512
6.011719,-16506.87,-20308.3,512
6.013672,-16508.75,-20306.67,512
6.015625,-16514.44,-20308.96,512
6.017578,-16501.72,-20305.51,512
6.019531,-16493.54,-20298.21,512
6.021484,-16495.47,-20304.2,512
6.023438,-16496.37,-20305.93,512
6.025391,-16488.86,-20294.73,512
6.027344,-16496.99,-20307.5,512
6.029297,-16498.89,-20304.71,512
6.03125,-16501.09,-20311.8,512
6.033203,-16502.18,-20312.5,512
6.035156,-16501.28,-20303.79,512
6.037109,-16501.44,-20311,512
6.039062,-16496.35,-20310.68,512
6.041016,-16499.16,-20320.87,512
6.042969,-16506.89,-20320.21,512
6.044922,-16514.42,-20319.16,512
6.046875,-16504.41,-20315.09,512
6.048828,-16502.15,-20311.66,512
6.050781,-16504.62,-20316.38,512
6.052734,-16503.77,-20314.53,512
6.054688,-16499.37,-20318.1,512
6.056641,-16502.55,-20321.73,512
6.058594,-16504.86,-20316.59,512
6.060547,-16506.03,-20318.65,512
6.0625,-16501.5,-20311.7,512
6.064453,-16508.4,-20311.76,512
6.066406,-16511.53,-20318.51,512
6.068359,-16502.83,-20311.5,512
6.070312,-16501.6,-20311.37,512
6.072266,-16503.93,-20310.36,512
6.074219,-16510.84,-20315.47,512
6.076172,-16505.16,-20306.93,512
6.078125,-16504.99,-20308.06,512
6.080078,-16507.27,-20312.22,512
6.082031,-16506.43,-20305.38,512
6.083984,-16507.34,-20302.12,512
6.085938,-16507.99,-20303.83,512
6.087891,-16510.8,-20310.22,512
6.089844,-16512.69,-20307.79,512
6.091797,-16507,-20301.63,512
6.09375,-16513.5,-20303.37,512
6.095703,-16513.24,-20306.34,512
6.097656,-16504.09,-20303.29,512
6.099609,-16497.45,-20303.31,512
6.101562,-16499.52,-20298.62,512
6.103516,-16507.89,-20312.32,512
6.105469,-16509.24,-20320.78,512
6.107422,-16512.39,-20319.51,512
6.109375,-16524.94,-20327.25,512
6.111328,-16514.36,-20311.43,512
6.113281,-16525.4,-20323.25,512
6.115234,-16524.96,-20323.77,512
6.117188,-16518.33,-20318.35,512
6.119141,-16518.35,-20316.08,512
6.121094,-16513.99,-20316.26,512
6.123047,-16510.7,-20317.88,512
6.125,-16503.06,-20312.18,512
6.126953,-16509.1,-20317.38,512
6.128906,-16512.88,-20323.19,512
6.130859,-16506.65,-20316.64,512
6.132812,-16508.44,-20324.26,512
6.134766,-16505.66,-20321.82,512
6.136719,-16498.07,-20317.68,512
6.138672,-16493.88,-20312.83,512
6.140625,-16491.66,-20310.98,512
6.142578,-16498.43,-20314.26,512
6.144531,-16504.05,-20312.69,512
6.146484,-16509.17,-20321.6,512
6.148438,-16507.15,-20319.9,512
6.150391,-16500.29,-20315.28,512
6.152344,-16504.77,-20324.27,512
6.154297,-16498.77,-20318.84,512
6.15625,-16500.92,-20322.41,512
6.158203,-16512.58,-20332.26,512
6.160156,-16503.55,-20327.71,512
6.162109,-16511.08,-20329.44,512
6.164062,-16512,-20331.75,512
6.166016,-16495.73,-20314.42,512
6.167969,-16496.26,-20315.77,512
6.169922,-16501.86,-20322.51,512
6.171875,-16501.19,-20321.84,512
6.173828,-16500.2,-20323.03,512
6.175781,-16498.51,-20317.73,512
6.177734,-16505.81,-20318.86,512
6.179688,-16507.27,-20317.57,512
6.181641,-16513.26,-20325.02,512
6.183594,-16505.44,-20329.18,512
6.185547,-16491.15,-20317.9,512
6.1875,-16499.6,-20326.47,512
6.189453,-16500.03,-20332.38,512
6.191406,-16509.66,-20350.52,512
6.193359,-16505.43,-20349.22,512
6.195312,-16511.1,-20342.72,512
6.197266,-16512.18,-20341.52,512
6.199219,-16506.54,-20336.59,512
6.201172,-16517.27,-20349.65,512
6.203125,-16517.79,-20355.85,512
6.205078,-16511.48,-20356.27,512
6.207031,-16514.14,-20351.52,512
6.208984,-16517.1,-20343.83,512
6.210938,-16509.47,-20336.05,512
6.212891,-16507.08,-20333.03,512
6.214844,-16506.49,-20332.94,512
6.216797,-16505.48,-20328.58,512
6.21875,-16504.13,-20331.08,512
6.220703,-16501.32,-20325.94,512
6.222656,-16510.21,-20335.32,512
6.224609,-16521.74,-20347.19,512
6.226562,-16514.1,-20331.72,512
6.228516,-16510.62,-20331.43,512
6.230469,-16511.12,-20334.47,512
6.232422,-16501.94,-20321.42,512
6.234375,-16499.56,-20325.16,512
6.236328,-16495.8,-20322.84,512
6.238281,-16503.37,-20332.43,512
6.240234,-16504.9,-20332.71,512
6.242188,-16501.22,-20327.47,512
6.244141,-16497.2,-20319.88,512
6.246094,-16505.13,-20322.79,512
6.248047,-16508.92,-20328.41,512
6.25,-16512.22,-20333.29,512
6.251953,-16504.26,-20323.84,512
6.253906,-16506.38,-20324.51,512
6.255859,-16513.69,-20327.94,512
6.257812,-16511.29,-20324.22,512
6.259766,-16511.37,-20323.28,512
6.261719,-16521.76,-20334.4,512
6.263672,-16522.52,-20334.76,512
6.265625,-16528.74,-20336.6,512
6.267578,-16524.75,-20336.68,512
6.269531,-16524.83,-20342.66,512
6.271484,-16522.7,-20349.97,512
6.273438,-16515.77,-20346.4,512
6.275391,-16514.61,-20335.16,512
6.277344,-16524.91,-20343.99,512
6.279297,-16517.54,-20338.91,512
6.28125,-16518.97,-20339.64,512
6.283203,-16519.38,-20343.55,512
6.285156,-16521.29,-20347.68,512
6.287109,-16514.54,-20342.43,512
6.289062,-16503.17,-20334.16,512
6.291016,-16498.85,-20332.88,512
6.292969,-16508.58,-20333.91,512
6.294922,-16508.46,-20338.11,512
6.296875,-16501.02,-20330.17,512
6.298828,-16497.19,-20329.28,512
6.300781,-16506.74,-20335.97,512
6.302734,-16499.77,-20334.91,512
6.304688,-16498.57,-20337.79,512
6.306641,-16492.77,-20330.39,512
6.308594,-16496.71,-20337.74,512
6.310547,-16502.56,-20336.37,512
6.3125,-16498.22,-20328.8,512
6.314453,-16501.41,-20335.34,512
6.316406,-16497.06,-20333.93,512
6.318359,-16495.88,-20337.37,512
6.320312,-16502.46,-20342.85,512
6.322266,-16496.14,-20337.85,512
6.324219,-16492.55,-20335.31,512
6.326172,-16486.82,-20324.06,512
6.328125,-16487.26,-20324.74,512
6.330078,-16500.19,-20330.35,512
6.332031,-16494.28,-20324.61,512
6.333984,-16489.7,-20325.11,512
6.335938,-16486.63,-20321.04,512
6.337891,-16489.69,-20319.91,512
6.339844,-16497.41,-20326.59,512
6.341797,-16505.95,-20332.19,512
6.34375,-16494.22,-20337.59,512
6.345703,-16500.55,-20336.99,512
6.347656,-16509.28,-20346.86,512
6.349609,-16503.03,-20347.8,512
6.351562,-16498.45,-20346.7,512
6.353516,-16511.87,-20358.09,512
6.355469,-16507.75,-20347.92,512
6.357422,-16496.76,-20344.26,512
6.359375,-16497.52,-20342.37,512
6.361328,-16494.95,-20350.34,512
6.363281,-16495.1,-20337.39,512
6.365234,-16507.11,-20346.48,512
6.367188,-16513.89,-20360.74,512
6.369141,-16502.79,-20349.31,512
6.371094,-16500.75,-20352.73,512
6.373047,-16500.56,-20358.47,512
6.375,-16493.22,-20345.92,512
6.376953,-16498.41,-20351.01,512
6.378906,-16503.72,-20352.68,512
6.380859,-16502.56,-20346.16,512
6.382812,-16494.5,-20342.83,512
6.384766,-16483.92,-20336.08,512
6.386719,-16482.36,-20342.72,512
6.388672,-16473.63,-20341.24,512
6.390625,-16459.02,-20334.02,512
6.392578,-16463.09,-20332.65,512
6.394531,-16471.74,-20337.92,512
6.396484,-16471.66,-20343.74,512
6.398438,-16475.24,-20349.02,512
6.400391,-16480.63,-20350.37,512
6.402344,-16464.75,-20340.28,512
6.404297,-16458.15,-20334.32,512
6.40625,-16457.2,-20327.18,512
6.408203,-16463.65,-20334.5,512
6.410156,-16458.72,-20327.79,512
6.412109,-16465.1,-20331.02,512
6.414062,-16476.63,-20334.14,512
6.416016,-16473.11,-20333.08,512
6.417969,-16470.15,-20333.97,512
6.419922,-16471.3,-20336.89,512
6.421875,-16483.86,-20336.17,512
6.423828,-16491.17,-20344.84,512
6.425781,-16509.6,-20350.27,512
6.427734,-16518.89,-20342.39,512
6.429688,-16514.06,-20334.14,512
6.431641,-16524.75,-20342.5,512
6.433594,-16518.44,-20339.81,512
6.435547,-16521.02,-20342.3,512
6.4375,-16520.49,-20341.57,512
6.439453,-16513.14,-20334.21,512
6.441406,-16530.02,-20345.25,512
6.443359,-16535.73,-20351.78,512
6.445312,-16538.44,-20348.09,512
6.447266,-16532.14,-20343.37,512
6.449219,-16531.48,-20343.35,512
6.451172,-16527.02,-20338.72,512
6.453125,-16527.33,-20350.67,512
6.455078,-16521.8,-20344.16,512
6.457031,-16521.15,-20344.23,512
6.458984,-16519.14,-20338.32,512
6.460938,-16516.83,-20330.05,512
6.462891,-16518.23,-20338.26,512
6.464844,-16516.31,-20327.82,512
6.466797,-16524.12,-20330.57,512
6.46875,-16519.08,-20337.51,512
6.470703,-16520.62,-20337.83,512
6.472656,-16520.3,-20331.98,512
6.474609,-16521.94,-20337.74,512
6.476562,-16521.83,-20336.36,512
6.478516,-16524.14,-20335.01,512
6.480469,-16523.62,-20331.95,512
6.482422,-16526.54,-20336.36,512
6.484375,-16520.75,-20332.54,512
6.486328,-16508.16,-20321.53,512
6.488281,-16511.46,-20318.98,512
6.490234,-16514.04,-20324.02,512
6.492188,-16511.23,-20323.39,512
6.494141,-16508.98,-20322.11,512
6.496094,-16516.29,-20328.49,512
6.498047,-16520.64,-20327.08,512
6.5,-16521.39,-20324.39,512
6.501953,-16517.16,-20324.84,512
6.503906,-16515.01,-20329.71,512
6.505859,-16516.65,-20335.03,512
6.507812,-16519.55,-20333.41,512
6.509766,-16510.38,-20320.98,512
6.511719,-16519.31,-20339.32,512
6.513672,-16520.06,-20338.48,512
6.515625,-16516.76,-20337.12,512
6.517578,-16512.82,-20336.38,512
6.519531,-16506.92,-20336.54,512
6.521484,-16505.65,-20341.68,512
6.523438,-16502.32,-20341.1,512
6.525391,-16502.2,-20336.98,512
6.527344,-16506.79,-20337.98,512
6.529297,-16516.72,-20338.3,512
6.53125,-16517.68,-20336.65,512
6.533203,-16509.59,-20328.99,512
6.535156,-16512.08,-20337.54,512
6.537109,-16509.87,-20339.08,512
6.539062,-16504.49,-20337.41,512
6.541016,-16505.67,-20347.17,512
6.542969,-16500.06,-20340.96,512
6.544922,-16497.5,-20340.64,512
6.546875,-16493.49,-20344.65,512
6.548828,-16478.77,-20340.23,512
6.550781,-16455.94,-20333.23,512
6.552734,-16436.3,-20340.05,512
6.554688,-16408.23,-20341.93,512
6.556641,-16386.94,-20333.94,512
6.558594,-16368.96,-20334.11,512
6.560547,-16351.89,-20348.76,512
6.5625,-16343.84,-20354.86,512
6.564453,-16350.04,-20355.36,512
6.566406,-16383.67,-20352.62,512
6.568359,-16421.71,-20343.3,512
6.570312,-16443.06,-20345.66,512
6.572266,-16466.45,-20338.86,512
6.574219,-16491.82,-20325.84,512
6.576172,-16532.44,-20321.74,512
6.578125,-16575.66,-20322.86,512
6.580078,-16614.78,-20316.52,512
6.582031,-16636.39,-20307.27,512
6.583984,-16653.11,-20302.07,512
6.585938,-16669.36,-20312.05,512
6.587891,-16666.11,-20318.39,512
6.589844,-16660.77,-20320.41,512
6.591797,-16645.2,-20313.85,512
6.59375,-16634.26,-20310.72,512
6.595703,-16635.65,-20324.48,512
6.597656,-16619.84,-20319.69,512
6.599609,-16612.46,-20324.12,512
6.601562,-16596.9,-20320.64,512
6.603516,-16583.66,-20312.48,512
6.605469,-16569.38,-20309.56,512
6.607422,-16569.68,-20320.96,512
6.609375,-16560.85,-20310.08,512
6.611328,-16556.85,-20311.12,512
6.613281,-16553.3,-20312.83,512
6.615234,-16543.72,-20310.86,512
6.617188,-16539.51,-20313.35,512
6.619141,-16524.92,-20303.58,512
6.621094,-16524.04,-20308.98,512
6.623047,-16530.2,-20314.3,512
6.625,-16525.09,-20311.43,512
6.626953,-16526.62,-20310.48,512
6.628906,-16526.04,-20306.82,512
6.630859,-16525.61,-20312.97,512
6.632812,-16524.08,-20316.92,512
6.634766,-16521.6,-20316.88,512
6.636719,-16529.16,-20323.16,512
6.638672,-16511.14,-20309.79,512
6.640625,-16512.18,-20306.54,512
6.642578,-16515.32,-20304.32,512
6.644531,-16507.58,-20292.87,512
6.646484,-16508.8,-20297.19,512
6.648438,-16502.37,-20278.37,512
6.650391,-16497.07,-20267.64,512
6.652344,-16496.67,-20264.75,512
6.654297,-16494.14,-20258.55,512
6.65625,-16495.14,-20252.01,512
6.658203,-16503.84,-20259.61,512
6.660156,-16499.27,-20254.35,512
6.662109,-16494.64,-20245.87,512
6.664062,-16511.28,-20257.45,512
6.666016,-16517.73,-20260.14,512
6.667969,-16514.09,-20255.36,512
6.669922,-16506.79,-20245.11,512
6.671875,-16505.45,-20241.31,512
6.673828,-16506.63,-20246.33,512
6.675781,-16500.61,-20239.07,512
6.677734,-16502.62,-20234.08,512
6.679688,-16508.52,-20243.6,512
6.681641,-16504.7,-20242.25,512
6.683594,-16497.7,-20238.37,512
6.685547,-16494.53,-20240.95,512
6.6875,-16506.57,-20254.45,512
6.689453,-16491.29,-20242.4,512
6.691406,-16493.82,-20243.17,512
6.693359,-16509.89,-20249.71,512
6.695312,-16505.14,-20229.23,512
6.697266,-16511.17,-20234.58,512
6.699219,-16508.38,-20238.4,512
6.701172,-16504.98,-20242.37,512
6.703125,-16503.99,-20235.21,512
6.705078,-16496.74,-20231.26,512
6.707031,-16488.48,-20238.31,512
6.708984,-16492.18,-20236.69,512
6.710938,-16493.7,-20234.72,512
6.712891,-16492.16,-20233.66,512
6.714844,-16504.7,-20231.44,512
6.716797,-16505.18,-20236.71,512
6.71875,-16487.22,-20233.41,512
6.720703,-16493.97,-20230.12,512
6.722656,-16483.93,-20223.68,512
6.724609,-16489.4,-20224.17,512
6.726562,-16484.03,-20217,512
6.728516,-16484.53,-20213.29,512
6.730469,-16480.62,-20215.98,512
6.732422,-16483.43,-20216.96,512
6.734375,-16483.71,-20222.95,512
6.736328,-16469.68,-20211.88,512
6.738281,-16472.14,-20212.99,512
6.740234,-16478.03,-20215.29,512
6.742188,-16475.53,-20209.97,512
6.744141,-16479.85,-20206.32,512
6.746094,-16488.41,-20212.01,512
6.748047,-16487.04,-20217.18,512
6.75,-16485.57,-20218.19,512
6.751953,-16477.97,-20214.59,512
6.753906,-16477.84,-20218.47,512
6.755859,-16468.59,-20210.84,512
6.757812,-16473.48,-20211.02,512
6.759766,-16479.88,-20217.46,512
6.761719,-16472.9,-20208.14,512
6.763672,-16473.28,-20214.88,512
6.765625,-16470.57,-20214.46,512
6.767578,-16468.97,-20212.29,512
6.769531,-16466.94,-20214.58,512
6.771484,-16479.69,-20219.77,512
6.773438,-16482.23,-20224.26,512
6.775391,-16477.99,-20214.85,512
6.777344,-16477.46,-20213.65,512
6.779297,-16481.26,-20214.85,512
6.78125,-16485.51,-20223.21,512
6.783203,-16469.54,-20216.13,512
6.785156,-16466.03,-20216.99,512
6.787109,-16464.86,-20221.07,512
6.789062,-16464.04,-20222.03,512
6.791016,-16454.64,-20211.44,512
6.792969,-16462.38,-20212.7,512
6.794922,-16457.43,-20212.52,512
6.796875,-16458.91,-20212.86,512
6.798828,-16470.26,-20224.94,512
6.800781,-16464.22,-20228.03,512
6.802734,-16463.42,-20230.22,512
6.804688,-16456.13,-20228.34,512
6.806641,-16440.99,-20218.02,512
6.808594,-16451.34,-20226.88,512
6.810547,-16450.1,-20221.69,512
6.8125,-16453.37,-20220.98,512
6.814453,-16453.36,-20222.61,512
6.816406,-16436.39,-20208.52,512
6.818359,-16431.96,-20206.39,512
6.820312,-16441.96,-20214.88,512
6.822266,-16439.07,-20215.76,512
6.824219,-16440.1,-20223.36,512
6.826172,-16436.74,-20224.06,512
6.828125,-16439.4,-20222.09,512
6.830078,-16435.78,-20220.4,512
6.832031,-16439.19,-20228.7,512
6.833984,-16436.45,-20224.42,512
6.835938,-16425.05,-20213.97,512
6.837891,-16425.07,-20214.33,512
6.839844,-16424.07,-20216.71,512
6.841797,-16427.63,-20220.05,512
6.84375,-16435.27,-20227.21,512
6.845703,-16436.96,-20233.92,512
6.847656,-16428.92,-20224.55,512
6.849609,-16431.5,-20223.64,512
6.851562,-16441.45,-20233.81,512
6.853516,-16430.41,-20225.23,512
6.855469,-16425.83,-20223,512
6.857422,-16431.59,-20222.71,512
6.859375,-16428.89,-20224.88,512
6.861328,-16430.18,-20217.42,512
6.863281,-16442.55,-20215.82,512
6.865234,-16432.59,-20209.5,512
6.867188,-16448.06,-20218.25,512
6.869141,-16440.58,-20212.28,512
6.871094,-16439.47,-20214.9,512
6.873047,-16443.03,-20220.4,512
6.875,-16444.95,-20215.27,512
6.876953,-16462.53,-20225.88,512
6.878906,-16467.61,-20225.76,512
6.880859,-16472.71,-20223.09,512
6.882812,-16476.78,-20217.72,512
6.884766,-16476.97,-20218.86,512
6.886719,-16474.88,-20219.86,512
6.888672,-16479.05,-20224.66,512
6.890625,-16470.87,-20213.48,512
6.892578,-16484.03,-20219.98,512
6.894531,-16486.02,-20218.89,512
6.896484,-16483.3,-20210.19,512
6.898438,-16489.62,-20211.53,512
6.900391,-16492.41,-20213.41,512
6.902344,-16493.17,-20212.07,512
6.904297,-16489.2,-20209.96,512
6.90625,-16486.82,-20204.8,512
6.908203,-16495.89,-20213.26,512
6.910156,-16508.55,-20220.31,512
6.912109,-16504.33,-20209.8,512
6.914062,-16505.46,-20208.84,512
6.916016,-16502.86,-20198.65,512
6.917969,-16506.33,-20208.86,512
6.919922,-16500.3,-20209.04,512
6.921875,-16502.55,-20204.61,512
6.923828,-16504.47,-20202.35,512
6.925781,-16509.81,-20211.52,512
6.927734,-16510.4,-20207.66,512
6.929688,-16505.76,-20196.79,512
6.931641,-16518.25,-20211.05,512
6.933594,-16518.02,-20209.97,512
6.935547,-16512.27,-20211.66,512
6.9375,-16506.82,-20207.93,512
6.939453,-16511.21,-20213.64,512
6.941406,-16512.2,-20216.6,512
6.943359,-16512.44,-20212.18,512
6.945312,-16518.58,-20213.41,512
6.947266,-16524.24,-20214.24,512
6.949219,-16512.59,-20201.64,512
6.951172,-16518.53,-20209.52,512
6.953125,-16515.51,-20212.54,512
6.955078,-16511.76,-20211.8,512
6.957031,-16507.35,-20206.18,512
6.958984,-16506.56,-20201.45,512
6.960938,-16509.88,-20200.98,512
6.962891,-16518.42,-20209.55,512
6.964844,-16524.9,-20214.89,512
6.966797,-16525.51,-20215.48,512
6.96875,-16530.76,-20220.01,512
6.970703,-16525.38,-20217.69,512
6.972656,-16531.66,-20226.31,512
6.974609,-16528.98,-20221.88,512
6.976562,-16526.5,-20211.95,512
6.978516,-16528.01,-20213.22,512
6.980469,-16527.71,-20212.9,512
6.982422,-16519.17,-20206.41,512
6.984375,-16516.46,-20209.29,512
6.986328,-16521.78,-20220.51,512
6.988281,-16518.59,-20213.25,512
6.990234,-16506.15,-20203.54,512
6.992188,-16497.82,-20200.28,512
6.994141,-16504.48,-20204.49,512
6.996094,-16503.8,-20203.53,512
6.998047,-16504.89,-20202.26,512
7,-16507.48,-20191.39,512
7.001953,-16518.11,-20201.09,512
7.003906,-16511.39,-20199.62,512
7.005859,-16513.84,-20213.15,512
7.007812,-16519.41,-20220.15,512
7.009766,-16517.58,-20214.57,512
7.011719,-16523.38,-20209.35,512
7.013672,-16518.48,-20205.61,512
7.015625,-16515.67,-20204.67,512
7.017578,-16514.16,-20198.87,512
7.019531,-16511.75,-20197.44,512
7.021484,-16509.29,-20192.36,512
7.023438,-16510.74,-20191.65,512
7.025391,-16515.08,-20189.91,512
7.027344,-16510.98,-20185.15,512
7.029297,-16504.21,-20182.9,512
7.03125,-16511.36,-20196.11,512
7.033203,-16508.86,-20189.85,512
7.035156,-16516.6,-20192.57,512
7.037109,-16514.14,-20190.93,512
7.039062,-16508.13,-20197.61,512
7.041016,-16509.79,-20192.66,512
7.042969,-16506.87,-20188.87,512
7.044922,-16499.01,-20189.37,512
7.046875,-16512.97,-20200.42,512
7.048828,-16517.06,-20202.89,512
7.050781,-16513.8,-20201.68,512
7.052734,-16517.55,-20210.49,512
7.054688,-16519.94,-20215.52,512
7.056641,-16516.38,-20214.01,512
7.058594,-16511.47,-20210.29,512
7.060547,-16518.49,-20214.89,512
7.0625,-16522.6,-20221.41,512
7.064453,-16528.39,-20222.5,512
7.066406,-16520.47,-20222.06,512
7.068359,-16533.24,-20223.52,512
7.070312,-16522.29,-20218.59,512
7.072266,-16507.85,-20213.68,512
7.074219,-16516.14,-20217.2,512
7.076172,-16507,-20203.49,512
7.078125,-16514.98,-20207.3,512
7.080078,-16511.7,-20199.66,512
7.082031,-16513.12,-20207.93,512
7.083984,-16522.19,-20215.56,512
7.085938,-16511.92,-20205.97,512
7.087891,-16507.95,-20204.3,512
7.089844,-16504.35,-20199.72,512
7.091797,-16510.01,-20208.59,512
7.09375,-16508.61,-20202.87,512
7.095703,-16510.11,-20198.69,512
7.097656,-16511.69,-20198.93,512
7.099609,-16507.3,-20194.95,512
7.101562,-16512.21,-20206.76,512
7.103516,-16525.97,-20223.04,512
7.105469,-16517.79,-20216.94,512
7.107422,-16513.22,-20212.8,512
7.109375,-16521.79,-20218.65,512
7.111328,-16514.21,-20209.48,512
7.113281,-16520.74,-20211.77,512
7.115234,-16523.64,-20212.58,512
7.117188,-16519.27,-20208.46,512
7.119141,-16518.73,-20210.18,512
7.121094,-16518.94,-20222.4,512
7.123047,-16524.83,-20229.18,512
7.125,-16519.33,-20223.29,512
7.126953,-16523.47,-20221.67,512
7.128906,-16523.84,-20219.21,512
7.130859,-16526.78,-20222.49,512
7.132812,-16519.86,-20218.47,512
7.134766,-16526.88,-20227.68,512
7.136719,-16518.73,-20226.31,512
7.138672,-16518.9,-20234.22,512
7.140625,-16523.18,-20238.29,512
7.142578,-16519.5,-20235.8,512
7.144531,-16519.47,-20230.9,512
7.146484,-16523.96,-20227.23,512
