timestamp,exg1,exg2,srate
0,-16875.34,-17569.03,512
0.001953125,-16901.32,-17590.59,512
0.00390625,-16900.52,-17579.24,512
0.005859375,-16897.45,-17580.21,512
0.0078125,-16909.67,-17570.33,512
0.009765625,-16905.29,-17574.45,512
0.01171875,-16899.49,-17576.45,512
0.01367188,-16891.4,-17566.26,512
0.015625,-16899.42,-17588.33,512
0.01757812,-16914.94,-17593.55,512
0.01953125,-16900.54,-17580.51,512
0.02148438,-16900.22,-17592.4,512
0.0234375,-16903.99,-17581.41,512
0.02539062,-16905.71,-17586.68,512
0.02734375,-16895.63,-17585.98,512
0.02929688,-16907.02,-17591.24,512
0.03125,-16915.39,-17604.33,512
0.03320312,-16919.08,-17604.09,512
0.03515625,-16901.52,-17581.75,512
0.03710938,-16901.35,-17587.9,512
0.0390625,-16904.78,-17585.2,512
0.04101562,-16902.05,-17582.97,512
0.04296875,-16911.36,-17580.36,512
0.04492188,-16925.71,-17585.16,512
0.046875,-16901.28,-17583.59,512
0.04882812,-16882.12,-17559.76,512
0.05078125,-16890.23,-17556.45,512
0.05273438,-16906.68,-17595.4,512
0.0546875,-16918.5,-17605.77,512
0.05664062,-16909.2,-17581.95,512
0.05859375,-16915.51,-17589.89,512
0.06054688,-16901.68,-17577.87,512
0.0625,-16913.72,-17582.1,512
0.06445312,-16893.27,-17577.84,512
0.06640625,-16892.37,-17559.35,512
0.06835938,-16915.89,-17578.07,512
0.0703125,-16913.96,-17597.45,512
0.07226562,-16915.25,-17593.85,512
0.07421875,-16920.41,-17593.25,512
0.07617188,-16917.39,-17585.16,512
0.078125,-16927.86,-17605.94,512
0.08007812,-16897.64,-17582.39,512
0.08203125,-16884.41,-17571.29,512
0.08398438,-16885.97,-17569.68,512
0.0859375,-16894.64,-17576.32,512
0.08789062,-16896.82,-17570.79,512
0.08984375,-16903.51,-17577.86,512
0.09179688,-16918.38,-17599.8,512
0.09375,-16907.51,-17580.46,512
0.09570312,-16910.58,-17581.96,512
0.09765625,-16900.71,-17570.34,512
0.09960938,-16904.96,-17578.14,512
0.1015625,-16905.44,-17587.8,512
0.1035156,-16920.5,-17590.91,512
0.1054688,-16917.36,-17590.49,512
0.1074219,-16914.74,-17597.31,512
0.109375,-16909.6,-17603.08,512
0.1113281,-16902.98,-17595.07,512
0.1132812,-16885,-17579.6,512
0.1152344,-16874.77,-17582.75,512
0.1171875,-16870.8,-17582.96,512
0.1191406,-16874.87,-17579.45,512
0.1210938,-16870.9,-17583.89,512
0.1230469,-16901.19,-17613.24,512
0.125,-16903.41,-17610.11,512
0.1269531,-16894.36,-17608.08,512
0.1289062,-16872.44,-17588.34,512
0.1308594,-16878.83,-17601.97,512
0.1328125,-16881.06,-17600.64,512
0.1347656,-16885.67,-17592.76,512
0.1367188,-16876.83,-17576.06,512
0.1386719,-16905.09,-17595.58,512
0.140625,-16912.94,-17594.22,512
0.1425781,-16884.52,-17569.74,512
0.1445312,-16892.88,-17576.38,512
0.1464844,-16902.56,-17589.03,512
0.1484375,-16911.62,-17607.79,512
0.1503906,-16900.39,-17583.9,512
0.1523438,-16914,-17597.38,512
0.1542969,-16908.07,-17582.79,512
0.15625,-16920.67,-17591.47,512
0.1582031,-16912.22,-17579.28,512
0.1601562,-16910.81,-17574.9,512
0.1621094,-16930.4,-17605.29,512
0.1640625,-16950.76,-17621.85,512
0.1660156,-16928.93,-17615.48,512
0.1679688,-16928.41,-17609.69,512
0.1699219,-16930.96,-17611.26,512
0.171875,-16939.97,-17613.84,512
0.1738281,-16936.43,-17595.92,512
0.1757812,-16942.67,-17606.93,512
0.1777344,-16951.79,-17609.66,512
0.1796875,-16943.6,-17604.95,512
0.1816406,-16939.74,-17612.9,512
0.1835938,-16941.96,-17611.14,512
0.1855469,-16945.34,-17622.9,512
0.1875,-16953.27,-17617.91,512
0.1894531,-16951.59,-17624.16,512
0.1914062,-16951,-17630.71,512
0.1933594,-16928.32,-17606.22,512
0.1953125,-16931.3,-17612.8,512
0.1972656,-16919.12,-17610.99,512
0.1992188,-16928.25,-17615.39,512
0.2011719,-16941.56,-17624.55,512
0.203125,-16968.54,-17634.33,512
0.2050781,-16937.89,-17590.13,512
0.2070312,-16930.98,-17591.45,512
0.2089844,-16937.71,-17614.05,512
0.2109375,-16935.16,-17616.23,512
0.2128906,-16926.77,-17604.5,512
0.2148438,-16956.13,-17631.69,512
0.2167969,-16955.7,-17621.07,512
0.21875,-16962.19,-17627.38,512
0.2207031,-16973.07,-17627.79,512
0.2226562,-16973.07,-17610.49,512
0.2246094,-16946.59,-17588.31,512
0.2265625,-16929.97,-17584.67,512
0.2285156,-16931.65,-17613.37,512
0.2304688,-16945.14,-17631.64,512
0.2324219,-16947.06,-17651.05,512
0.234375,-16925.5,-17610.9,512
0.2363281,-16960.87,-17626.54,512
0.2382812,-16977.3,-17640.21,512
0.2402344,-16978.94,-17644.04,512
0.2421875,-17000.84,-17653.32,512
0.2441406,-16989,-17660.01,512
0.2460938,-16963.21,-17642.99,512
0.2480469,-16977.68,-17642.6,512
0.25,-16969.49,-17621.87,512
0.2519531,-16991.96,-17656.72,512
0.2539062,-16968.25,-17664.23,512
0.2558594,-16917.81,-17610.67,512
0.2578125,-16947.63,-17634.81,512
0.2597656,-16985.96,-17648.97,512
0.2617188,-16956.25,-17632.74,512
0.2636719,-16969.25,-17641.53,512
0.265625,-16972.61,-17648.05,512
0.2675781,-16942.47,-17637.9,512
0.2695312,-16942.04,-17643.66,512
0.2714844,-16925.8,-17625.73,512
0.2734375,-16920.13,-17620.42,512
0.2753906,-16908.74,-17620.73,512
0.2773438,-16883.71,-17605.66,512
0.2792969,-16871.93,-17605.93,512
0.28125,-16858.86,-17611.38,512
0.2832031,-16832.28,-17602.25,512
0.2851562,-16806.64,-17598.01,512
0.2871094,-16799.55,-17603.26,512
0.2890625,-16803.2,-17619.82,512
0.2910156,-16811.45,-17616.08,512
0.2929688,-16825.65,-17602.04,512
0.2949219,-16882.16,-17601.74,512
0.296875,-16914.17,-17600.22,512
0.2988281,-16925.62,-17596.78,512
0.3007812,-16954.94,-17599.9,512
0.3027344,-16956.31,-17579.15,512
0.3046875,-16987.51,-17565.19,512
0.3066406,-16983.42,-17546.47,512
0.3085938,-17021.08,-17554.71,512
0.3105469,-17029.11,-17567.46,512
0.3125,-17056.88,-17569.48,512
0.3144531,-17076.62,-17580.47,512
0.3164062,-17054.4,-17584.87,512
0.3183594,-17053.21,-17576.42,512
0.3203125,-17065.55,-17609.38,512
0.3222656,-17055.83,-17611.85,512
0.3242188,-17043.23,-17606.21,512
0.3261719,-17033.89,-17621.21,512
0.328125,-16995.69,-17603.58,512
0.3300781,-16948.9,-17590.76,512
0.3320312,-16954.36,-17583.83,512
0.3339844,-16993.63,-17591.88,512
0.3359375,-16959.12,-17580.31,512
0.3378906,-16920.27,-17555.34,512
0.3398438,-16948.08,-17578.66,512
0.3417969,-16979.32,-17596.91,512
0.34375,-16949.48,-17602.04,512
0.3457031,-16913.2,-17595.49,512
0.3476562,-16894.14,-17579.85,512
0.3496094,-16907.1,-17604.58,512
0.3515625,-16964.33,-17641.72,512
0.3535156,-16957.56,-17641.3,512
0.3554688,-16956.26,-17630.72,512
0.3574219,-16936.25,-17616.13,512
0.359375,-16889.78,-17592.66,512
0.3613281,-16916.39,-17603.77,512
0.3632812,-16960.62,-17627.33,512
0.3652344,-16938.45,-17625.38,512
0.3671875,-16902.89,-17592.78,512
0.3691406,-16929.96,-17609.15,512
0.3710938,-16922.35,-17631,512
0.3730469,-16922.45,-17621.97,512
0.375,-16935.8,-17617.13,512
0.3769531,-16968.86,-17643.74,512
0.3789062,-16940.52,-17627.01,512
0.3808594,-16919.17,-17626.88,512
0.3828125,-16930.04,-17636.75,512
0.3847656,-16937.12,-17650.35,512
0.3867188,-16941.93,-17649.12,512
0.3886719,-16929.95,-17636.19,512
0.390625,-16943.6,-17642.61,512
0.3925781,-16941.01,-17646.41,512
0.3945312,-16936.78,-17635.12,512
0.3964844,-16928.55,-17631.21,512
0.3984375,-16899.21,-17614.16,512
0.4003906,-16918.31,-17611.06,512
0.4023438,-16955.49,-17651.83,512
0.4042969,-16936.86,-17643.28,512
0.40625,-16917.11,-17641.88,512
0.4082031,-16903.83,-17622.37,512
0.4101562,-16930.94,-17632.77,512
0.4121094,-16924.71,-17619.33,512
0.4140625,-16921.4,-17628.98,512
0.4160156,-16921.87,-17622.95,512
0.4179688,-16883.89,-17584,512
0.4199219,-16917.95,-17613.95,512
0.421875,-16913.17,-17604.47,512
0.4238281,-16876.09,-17590.91,512
0.4257812,-16897.33,-17589.22,512
0.4277344,-16919.58,-17616.43,512
0.4296875,-16907.83,-17612.49,512
0.4316406,-16903.41,-17639.11,512
0.4335938,-16879.04,-17633.88,512
0.4355469,-16957.07,-17627.64,512
0.4375,-16953.75,-17637.96,512
0.4394531,-16913.01,-17619.15,512
0.4414062,-16944.45,-17649.83,512
0.4433594,-16937.07,-17645.73,512
0.4453125,-16933.63,-17651.04,512
0.4472656,-16901.12,-17625.51,512
0.4492188,-16902.86,-17626.65,512
0.4511719,-16927.34,-17650.34,512
0.453125,-16915.91,-17635.27,512
0.4550781,-16926.22,-17646.05,512
0.4570312,-16906,-17625.89,512
0.4589844,-16909.27,-17626.16,512
0.4609375,-16925.05,-17647.22,512
0.4628906,-16911.43,-17652.07,512
0.4648438,-16914.46,-17640.95,512
0.4667969,-16911.53,-17638.85,512
0.46875,-16902.62,-17632.54,512
0.4707031,-16893.64,-17614.1,512
0.4726562,-16923.54,-17649.62,512
0.4746094,-16929.6,-17643.45,512
0.4765625,-16889.08,-17614.87,512
0.4785156,-16905.33,-17638.46,512
0.4804688,-16899,-17634,512
0.4824219,-16888.07,-17631.58,512
0.484375,-16913.81,-17652.11,512
0.4863281,-16900.05,-17636.4,512
0.4882812,-16884.15,-17633.5,512
0.4902344,-16875.1,-17618.94,512
0.4921875,-16894.12,-17632.83,512
0.4941406,-16901.41,-17637.06,512
0.4960938,-16891.96,-17641.46,512
0.4980469,-16902.1,-17636.94,512
0.5,-16876.98,-17622.07,512
0.5019531,-16871.53,-17638.81,512
0.5039062,-16880.35,-17633.84,512
0.5058594,-16900.79,-17643,512
0.5078125,-16912.68,-17656.88,512
0.5097656,-16903.96,-17631.7,512
0.5117188,-16905.17,-17635.43,512
0.5136719,-16910.27,-17662.92,512
0.515625,-16897.64,-17658.88,512
0.5175781,-16879.41,-17641.21,512
0.5195312,-16890.04,-17656.58,512
0.5214844,-16883.31,-17641.32,512
0.5234375,-16862.38,-17626.9,512
0.5253906,-16880.79,-17652.22,512
0.5273438,-16851.22,-17636.96,512
0.5292969,-16847.77,-17628.07,512
0.53125,-16885.13,-17665.22,512
0.5332031,-16878.25,-17650.04,512
0.5351562,-16857.08,-17645.95,512
0.5371094,-16848.78,-17629.37,512
0.5390625,-16880.2,-17659.11,512
0.5410156,-16831.85,-17624.64,512
0.5429688,-16839.98,-17621.3,512
0.5449219,-16840.34,-17633.51,512
0.546875,-16861.21,-17639.38,512
0.5488281,-16857.64,-17639.99,512
0.5507812,-16834.52,-17631.46,512
0.5527344,-16829.41,-17627.09,512
0.5546875,-16849.01,-17638.79,512
0.5566406,-16842.82,-17631.97,512
0.5585938,-16834.93,-17625.83,512
0.5605469,-16847.16,-17634.56,512
0.5625,-16836.81,-17634.49,512
0.5644531,-16835.33,-17630.93,512
0.5664062,-16829.07,-17628.96,512
0.5683594,-16817.83,-17635.85,512
0.5703125,-16819.9,-17627.96,512
0.5722656,-16792.66,-17600.79,512
0.5742188,-16816.24,-17613.37,512
0.5761719,-16825.97,-17622.83,512
0.578125,-16837.84,-17637.26,512
0.5800781,-16829.09,-17623.88,512
0.5820312,-16804.62,-17602.12,512
0.5839844,-16829.91,-17630.69,512
0.5859375,-16851.82,-17645.83,512
0.5878906,-16837.38,-17606.76,512
0.5898438,-16814.92,-17581.98,512
0.5917969,-16843.86,-17609.14,512
0.59375,-16833.19,-17602.9,512
0.5957031,-16846.21,-17606.46,512
0.5976562,-16840.88,-17615.29,512
0.5996094,-16869.33,-17632.81,512
0.6015625,-16867.73,-17625.25,512
0.6035156,-16856.69,-17613.26,512
0.6054688,-16840.75,-17602,512
0.6074219,-16875.1,-17610.7,512
0.609375,-16889.57,-17614.89,512
0.6113281,-16872.91,-17602.77,512
0.6132812,-16890.5,-17609.26,512
0.6152344,-16868.1,-17620.45,512
0.6171875,-16885.71,-17638.24,512
0.6191406,-16906.73,-17646.22,512
0.6210938,-16908.01,-17633.66,512
0.6230469,-16895.03,-17628.39,512
0.625,-16908.17,-17639.9,512
0.6269531,-16920.02,-17636,512
0.6289062,-16915.73,-17633.21,512
0.6308594,-16914.38,-17639.79,512
0.6328125,-16909.94,-17634.29,512
0.6347656,-16923.04,-17647.44,512
0.6367188,-16933.54,-17649.19,512
0.6386719,-16916.62,-17634.47,512
0.640625,-16925.45,-17636.06,512
0.6425781,-16954.99,-17650.36,512
0.6445312,-16934.67,-17617.59,512
0.6464844,-16937.47,-17641.12,512
0.6484375,-16930.15,-17640.7,512
0.6503906,-16931.59,-17628.94,512
0.6523438,-16938.75,-17650.2,512
0.6542969,-16931.61,-17645.09,512
0.65625,-16927.63,-17634.01,512
0.6582031,-16938.01,-17638.91,512
0.6601562,-16926.54,-17625.2,512
0.6621094,-16925.82,-17629.57,512
0.6640625,-16919.57,-17621.45,512
0.6660156,-16918.47,-17618.43,512
0.6679688,-16901.32,-17613.03,512
0.6699219,-16907.5,-17608.93,512
0.671875,-16914.36,-17617.17,512
0.6738281,-16917.71,-17610.39,512
0.6757812,-16908.03,-17609.2,512
0.6777344,-16918.92,-17621.41,512
0.6796875,-16922.03,-17629.39,512
0.6816406,-16905.58,-17628.13,512
0.6835938,-16916.84,-17634.83,512
0.6855469,-16924.01,-17627.96,512
0.6875,-16907.38,-17606.93,512
0.6894531,-16904.4,-17601.86,512
0.6914062,-16911.29,-17618.08,512
0.6933594,-16906.81,-17628.63,512
0.6953125,-16920.42,-17630.18,512
0.6972656,-16916.85,-17628.4,512
0.6992188,-16894.22,-17606.59,512
0.7011719,-16900.64,-17619.2,512
0.703125,-16901.44,-17604,512
0.7050781,-16909.64,-17602.59,512
0.7070312,-16929.63,-17614.75,512
0.7089844,-16909.26,-17609.92,512
0.7109375,-16913.01,-17608.77,512
0.7128906,-16928.29,-17618.94,512
0.7148438,-16905.62,-17609.28,512
0.7167969,-16896.9,-17613.53,512
0.71875,-16905.56,-17621.25,512
0.7207031,-16896.84,-17609.96,512
0.7226562,-16909.98,-17606.54,512
0.7246094,-16939.54,-17618.14,512
0.7265625,-16928.82,-17614.3,512
0.7285156,-16937.67,-17621.66,512
0.7304688,-16923.32,-17612.3,512
0.7324219,-16930.08,-17625.36,512
0.734375,-16901.32,-17610.12,512
0.7363281,-16917.9,-17607.89,512
0.7382812,-16927.41,-17610.82,512
0.7402344,-16919.35,-17605.46,512
0.7421875,-16941.19,-17635.52,512
0.7441406,-16924.76,-17625.02,512
0.7460938,-16920.37,-17616.18,512
0.7480469,-16937.45,-17623.12,512
0.75,-16924.39,-17624.07,512
0.7519531,-16894.79,-17592.35,512
0.7539062,-16916.87,-17595.18,512
0.7558594,-16924.26,-17620.6,512
0.7578125,-16905.46,-17587.75,512
0.7597656,-16925.32,-17605.17,512
0.7617188,-16927.84,-17614.38,512
0.7636719,-16910.12,-17608.59,512
0.765625,-16921.71,-17616.07,512
0.7675781,-16920.97,-17611.47,512
0.7695312,-16917.62,-17614.2,512
0.7714844,-16926.29,-17619.32,512
0.7734375,-16921.35,-17610.67,512
0.7753906,-16916.55,-17605.99,512
0.7773438,-16916.65,-17610.71,512
0.7792969,-16897.17,-17586.01,512
0.78125,-16912.88,-17609.69,512
0.7832031,-16901.4,-17595.6,512
0.7851562,-16893.72,-17586.38,512
0.7871094,-16917.32,-17613.8,512
0.7890625,-16907.62,-17602.15,512
0.7910156,-16898.63,-17594.89,512
0.7929688,-16909.12,-17599.59,512
0.7949219,-16901.33,-17592.52,512
0.796875,-16913.98,-17600.65,512
0.7988281,-16921.24,-17610.59,512
0.8007812,-16896.08,-17599.57,512
0.8027344,-16909.09,-17603.23,512
0.8046875,-16911.78,-17604.41,512
0.8066406,-16907.34,-17598.11,512
0.8085938,-16917.56,-17600.96,512
0.8105469,-16892.35,-17586.17,512
0.8125,-16907.93,-17606.25,512
0.8144531,-16902.33,-17600.09,512
0.8164062,-16893.66,-17598.94,512
0.8183594,-16886.55,-17593.64,512
0.8203125,-16902.47,-17593.27,512
0.8222656,-16913.72,-17603.86,512
0.8242188,-16921.42,-17602.5,512
0.8261719,-16937.05,-17617.4,512
0.828125,-16929.12,-17608.47,512
0.8300781,-16919.87,-17598.88,512
0.8320312,-16918.13,-17602.07,512
0.8339844,-16905.07,-17597.22,512
0.8359375,-16900.22,-17598.89,512
0.8378906,-16917.81,-17602.12,512
0.8398438,-16902.12,-17589.92,512
0.8417969,-16925.01,-17606.61,512
0.84375,-16915.91,-17602.68,512
0.8457031,-16905.33,-17589.64,512
0.8476562,-16909.44,-17598.9,512
0.8496094,-16912.26,-17597.89,512
0.8515625,-16906.91,-17595.77,512
0.8535156,-16909.82,-17597.56,512
0.8554688,-16917.37,-17597.62,512
0.8574219,-16912.5,-17589.4,512
0.859375,-16913.9,-17595.44,512
0.8613281,-16917.97,-17593.16,512
0.8632812,-16905.15,-17585.57,512
0.8652344,-16919.11,-17610.59,512
0.8671875,-16902.37,-17596.31,512
0.8691406,-16907.88,-17594.89,512
0.8710938,-16910.43,-17583.58,512
0.8730469,-16886.12,-17562.39,512
0.875,-16906.4,-17593.05,512
0.8769531,-16922.86,-17616.73,512
0.8789062,-16903.97,-17600.69,512
0.8808594,-16898.62,-17595.21,512
0.8828125,-16899,-17608.47,512
0.8847656,-16890.1,-17589.4,512
0.8867188,-16909.99,-17606.41,512
0.8886719,-16923.2,-17614.16,512
0.890625,-16910.32,-17604.82,512
0.8925781,-16890.54,-17590.88,512
0.8945312,-16913.63,-17607.23,512
0.8964844,-16893.33,-17589.94,512
0.8984375,-16870.38,-17582.98,512
0.9003906,-16885.03,-17589.75,512
0.9023438,-16871.11,-17578.71,512
0.9042969,-16889.35,-17591.69,512
0.90625,-16924.21,-17616.34,512
0.9082031,-16909.94,-17591.75,512
0.9101562,-16901.85,-17581.88,512
0.9121094,-16921.21,-17613.95,512
0.9140625,-16916.8,-17609.19,512
0.9160156,-16911.41,-17608.2,512
0.9179688,-16912.8,-17608.39,512
0.9199219,-16917,-17604.49,512
0.921875,-16906.55,-17606.7,512
0.9238281,-16899.03,-17589.89,512
0.9257812,-16913.56,-17592.92,512
0.9277344,-16913.63,-17601.62,512
0.9296875,-16902.59,-17581.46,512
0.9316406,-16894.77,-17576.37,512
0.9335938,-16899.66,-17589.13,512
0.9355469,-16907.42,-17608.34,512
0.9375,-16913.67,-17604.52,512
0.9394531,-16916.48,-17598.25,512
0.9414062,-16917.74,-17598.53,512
0.9433594,-16894.33,-17573.41,512
0.9453125,-16914.07,-17591.49,512
0.9472656,-16930.97,-17616.62,512
0.9492188,-16915.7,-17614.94,512
0.9511719,-16923.96,-17619.8,512
0.953125,-16913.25,-17602.59,512
0.9550781,-16909.39,-17599.38,512
0.9570312,-16911.14,-17602.47,512
0.9589844,-16920.51,-17609.23,512
0.9609375,-16897.95,-17596.39,512
0.9628906,-16885.32,-17589.32,512
0.9648438,-16904.2,-17600.71,512
0.9667969,-16898.88,-17614.92,512
0.96875,-16901.08,-17602.46,512
0.9707031,-16907.02,-17602.95,512
0.9726562,-16901.31,-17602.06,512
0.9746094,-16867.85,-17588.58,512
0.9765625,-16896.93,-17604.25,512
0.9785156,-16924.15,-17623.95,512
0.9804688,-16898.06,-17618.25,512
0.9824219,-16895.1,-17609.67,512
0.984375,-16899.68,-17612.43,512
0.9863281,-16905.15,-17611.74,512
0.9882812,-16907.61,-17618.28,512
0.9902344,-16913.55,-17624.98,512
0.9921875,-16897.93,-17606.26,512
0.9941406,-16916.44,-17638.93,512
0.9960938,-16911.84,-17640.4,512
0.9980469,-16887.35,-17630.37,512
1,-16893.21,-17642.35,512
1.001953,-16895.06,-17630.32,512
1.003906,-16898.8,-17631.62,512
1.005859,-16909.56,-17644.48,512
1.007812,-16907.98,-17637.49,512
1.009766,-16903.35,-17635.79,512
1.011719,-16903.97,-17639.41,512
1.013672,-16917.42,-17649.35,512
1.015625,-16908.52,-17641.65,512
1.017578,-16907.12,-17642.76,512
1.019531,-16899.13,-17620.04,512
1.021484,-16893.7,-17609.92,512
1.023438,-16890.1,-17599.87,512
1.025391,-16891.96,-17609.87,512
1.027344,-16901.06,-17610.83,512
1.029297,-16904.28,-17615.76,512
1.03125,-16917.71,-17619.71,512
1.033203,-16899.32,-17620.13,512
1.035156,-16904.82,-17625.32,512
1.037109,-16925.51,-17621.38,512
1.039062,-16912.79,-17605.95,512
1.041016,-16919.84,-17617.95,512
1.042969,-16935.49,-17616.71,512
1.044922,-16926.47,-17609.51,512
1.046875,-16928.57,-17617.15,512
1.048828,-16926.44,-17618.32,512
1.050781,-16916.87,-17619.76,512
1.052734,-16919.69,-17616.1,512
1.054688,-16919.09,-17605.59,512
1.056641,-16923.17,-17622.08,512
1.058594,-16932.6,-17623.04,512
1.060547,-16928.83,-17610.64,512
1.0625,-16924.08,-17617.39,512
1.064453,-16931.31,-17620.37,512
1.066406,-16916.95,-17614.54,512
1.068359,-16912.31,-17615.4,512
1.070312,-16928.62,-17618.55,512
1.072266,-16934.41,-17622.3,512
1.074219,-16941.32,-17627.9,512
1.076172,-16929.04,-17612.82,512
1.078125,-16934.96,-17620.54,512
1.080078,-16922.72,-17614.45,512
1.082031,-16931.12,-17617.65,512
1.083984,-16922.63,-17613.04,512
1.085938,-16925.4,-17615.94,512
1.087891,-16930.37,-17625.79,512
1.089844,-16924.15,-17612.37,512
1.091797,-16929.9,-17604.03,512
1.09375,-16930.82,-17599.89,512
1.095703,-16920,-17606.68,512
1.097656,-16924.47,-17616.71,512
1.099609,-16921.43,-17626.12,512
1.101562,-16917.34,-17621.35,512
1.103516,-16919.09,-17621.25,512
1.105469,-16912.16,-17609.6,512
1.107422,-16921.73,-17609.48,512
1.109375,-16914.86,-17612.08,512
1.111328,-16929.96,-17626.29,512
1.113281,-16940.62,-17623.32,512
1.115234,-16923.73,-17618.48,512
1.117188,-16918.32,-17625.1,512
1.119141,-16930.95,-17623.02,512
1.121094,-16924.04,-17624.22,512
1.123047,-16934.61,-17630.33,512
1.125,-16947.35,-17632.38,512
1.126953,-16939.99,-17628.24,512
1.128906,-16921.4,-17627.66,512
1.130859,-16913.65,-17622.46,512
1.132812,-16914.85,-17619.19,512
1.134766,-16922.85,-17620.02,512
1.136719,-16936.11,-17628.01,512
1.138672,-16919.57,-17622.23,512
1.140625,-16925.73,-17624.09,512
1.142578,-16925.47,-17623.23,512
1.144531,-16910.63,-17612.97,512
1.146484,-16919.01,-17619.96,512
1.148438,-16923.79,-17634.57,512
1.150391,-16911.99,-17635.58,512
1.152344,-16883.44,-17617.97,512
1.154297,-16901.02,-17634.6,512
1.15625,-16880.46,-17625.76,512
1.158203,-16867.62,-17625.66,512
1.160156,-16853.96,-17614.84,512
1.162109,-16830.54,-17620.35,512
1.164062,-16808.25,-17616.48,512
1.166016,-16802.44,-17624.66,512
1.167969,-16773.51,-17626.01,512
1.169922,-16796.24,-17664.34,512
1.171875,-16800.93,-17664.11,512
1.173828,-16843.76,-17660.79,512
1.175781,-16888.31,-17654.52,512
1.177734,-16878.06,-17626.58,512
1.179688,-16912.24,-17634.22,512
1.181641,-16948.8,-17630.54,512
1.183594,-16974.96,-17623.75,512
1.185547,-17014.4,-17626.58,512
1.1875,-17029.65,-17609.25,512
1.189453,-17050.74,-17605.47,512
1.191406,-17070.42,-17607.15,512
1.193359,-17066.45,-17602.08,512
1.195312,-17075.05,-17610.41,512
1.197266,-17080.77,-17626.32,512
1.199219,-17053.35,-17611.01,512
1.201172,-17039.96,-17613.15,512
1.203125,-17035.14,-17613.11,512
1.205078,-17021.5,-17612.16,512
1.207031,-17005.34,-17607.04,512
1.208984,-16993.58,-17600.73,512
1.210938,-16977.99,-17590.94,512
1.212891,-16962.07,-17587.63,512
1.214844,-16964.26,-17601.16,512
1.216797,-16960.79,-17601.81,512
1.21875,-16946.6,-17601.42,512
1.220703,-16950.87,-17614.57,512
1.222656,-16935.74,-17605.6,512
1.224609,-16927.74,-17597.06,512
1.226562,-16941.19,-17617.21,512
1.228516,-16929.3,-17610.58,512
1.230469,-16920.16,-17613.49,512
1.232422,-16903.16,-17601.37,512
1.234375,-16904.21,-17609.87,512
1.236328,-16928.41,-17614.82,512
1.238281,-16925.77,-17618.95,512
1.240234,-16917.78,-17614.21,512
1.242188,-16918.34,-17611.6,512
1.244141,-16908.66,-17621.7,512
1.246094,-16901.02,-17610.17,512
1.248047,-16913.38,-17620.4,512
1.25,-16909.04,-17628.41,512
1.251953,-16909.75,-17621.7,512
1.253906,-16917.23,-17626.36,512
1.255859,-16917.79,-17622.01,512
1.257812,-16918.78,-17628.4,512
1.259766,-16923.93,-17629.82,512
1.261719,-16911.13,-17617.99,512
1.263672,-16895.65,-17612.41,512
1.265625,-16924.02,-17639.55,512
1.267578,-16922.25,-17637.99,512
1.269531,-16913.84,-17620.99,512
1.271484,-16927.22,-17630.13,512
1.273438,-16918.47,-17626.71,512
1.275391,-16909.78,-17618.52,512
1.277344,-16918.82,-17624.72,512
1.279297,-16919.02,-17630.35,512
1.28125,-16919.08,-17632.33,512
1.283203,-16917.67,-17630.35,512
1.285156,-16902.62,-17620.54,512
1.287109,-16899.63,-17614.64,512
1.289062,-16893.16,-17613.36,512
1.291016,-16911.92,-17617.55,512
1.292969,-16907.78,-17615.41,512
1.294922,-16905.06,-17616.64,512
1.296875,-16917.64,-17628.13,512
1.298828,-16915.74,-17634.71,512
1.300781,-16899.83,-17623.2,512
1.302734,-16894.5,-17614.39,512
1.304688,-16904.95,-17619.61,512
1.306641,-16900.69,-17619.7,512
1.308594,-16903.12,-17618.78,512
1.310547,-16904.21,-17630.49,512
1.3125,-16897.5,-17617.29,512
1.314453,-16899.51,-17624.23,512
1.316406,-16902.81,-17628.59,512
1.318359,-16894.68,-17623.4,512
1.320312,-16900.62,-17627.66,512
1.322266,-16908.4,-17637.88,512
1.324219,-16904.03,-17627.27,512
1.326172,-16903.67,-17628.84,512
1.328125,-16903.08,-17632.35,512
1.330078,-16911.14,-17638.85,512
1.332031,-16910.17,-17637.36,512
1.333984,-16907.85,-17634.86,512
1.335938,-16923.86,-17651.19,512
1.337891,-16902.94,-17632.89,512
1.339844,-16907.96,-17635.57,512
1.341797,-16917.46,-17640.28,512
1.34375,-16912.47,-17639.81,512
1.345703,-16896.24,-17632.93,512
1.347656,-16896.69,-17630.21,512
1.349609,-16898.25,-17635.86,512
1.351562,-16903.9,-17638.2,512
1.353516,-16880.71,-17606.91,512
1.355469,-16900.02,-17632.48,512
1.357422,-16914.58,-17653.49,512
1.359375,-16890.64,-17619.11,512
1.361328,-16921.51,-17657.78,512
1.363281,-16909.42,-17647.64,512
1.365234,-16888.81,-17630.26,512
1.367188,-16901.56,-17646.75,512
1.369141,-16896.2,-17652.32,512
1.371094,-16884.97,-17622.93,512
1.373047,-16877.52,-17614.63,512
1.375,-16877.1,-17621.89,512
1.376953,-16890.07,-17627.95,512
1.378906,-16878.87,-17614.87,512
1.380859,-16880.12,-17628.51,512
1.382812,-16898.75,-17647.99,512
1.384766,-16883.44,-17640.66,512
1.386719,-16871.27,-17635.57,512
1.388672,-16882.56,-17634.22,512
1.390625,-16878.41,-17631.66,512
1.392578,-16850.02,-17610.25,512
1.394531,-16873.2,-17629.3,512
1.396484,-16873.48,-17625.18,512
1.398438,-16881.99,-17638.72,512
1.400391,-16855.29,-17622.58,512
1.402344,-16831.97,-17599.37,512
1.404297,-16857.93,-17631,512
1.40625,-16855.1,-17627,512
1.408203,-16848.86,-17613.94,512
1.410156,-16869.04,-17632.45,512
1.412109,-16849.03,-17614.71,512
1.414062,-16848.76,-17618.75,512
1.416016,-16842.23,-17623.04,512
1.417969,-16857.99,-17637.98,512
1.419922,-16843.52,-17619.7,512
1.421875,-16843.02,-17626.66,512
1.423828,-16850.36,-17629.69,512
1.425781,-16849.27,-17628.18,512
1.427734,-16845.08,-17627.86,512
1.429688,-16845.18,-17634.1,512
1.431641,-16842.68,-17633.94,512
1.433594,-16829.07,-17623.86,512
1.435547,-16842.78,-17636.4,512
1.4375,-16835.29,-17628.16,512
1.439453,-16838.81,-17637.27,512
1.441406,-16829.8,-17632.34,512
1.443359,-16817.84,-17628.64,512
1.445312,-16834.66,-17639.44,512
1.447266,-16830.5,-17634.76,512
1.449219,-16824.71,-17633.11,512
1.451172,-16840.25,-17638.65,512
1.453125,-16827.48,-17629.52,512
1.455078,-16816.52,-17624.46,512
1.457031,-16828.17,-17629.24,512
1.458984,-16826.98,-17627.14,512
1.460938,-16824.65,-17622.23,512
1.462891,-16826.66,-17621.12,512
1.464844,-16832.74,-17627.94,512
1.466797,-16824.03,-17623.25,512
1.46875,-16818.57,-17619.72,512
1.470703,-16805.4,-17598.19,512
1.472656,-16818.94,-17607.96,512
1.474609,-16829.6,-17609.57,512
1.476562,-16846.53,-17612.31,512
1.478516,-16832.39,-17602.36,512
1.480469,-16835.99,-17599.31,512
1.482422,-16844.82,-17608.41,512
1.484375,-16851.29,-17612.58,512
1.486328,-16864.27,-17618.96,512
1.488281,-16870.57,-17614.5,512
1.490234,-16861.62,-17602.54,512
1.492188,-16874.77,-17606.84,512
1.494141,-16872.41,-17608.16,512
1.496094,-16864.86,-17612.42,512
1.498047,-16869.87,-17615.34,512
1.5,-16876.76,-17606.39,512
1.501953,-16889.52,-17625.29,512
1.503906,-16875.93,-17607.95,512
1.505859,-16902.53,-17623.84,512
1.507812,-16883.78,-17616.61,512
1.509766,-16875.56,-17603.47,512
1.511719,-16876.32,-17605.4,512
1.513672,-16874.92,-17607.8,512
1.515625,-16900.56,-17624.15,512
1.517578,-16892.87,-17620.16,512
1.519531,-16887.96,-17614.49,512
1.521484,-16891.02,-17616,512
1.523438,-16876.24,-17602.62,512
1.525391,-16888.44,-17615,512
1.527344,-16885.18,-17610.4,512
1.529297,-16874.1,-17598.91,512
1.53125,-16891.49,-17621.72,512
1.533203,-16895.12,-17621.48,512
1.535156,-16884.06,-17606.6,512
1.537109,-16884.85,-17612.15,512
1.539062,-16879.96,-17608.04,512
1.541016,-16891.66,-17616.89,512
1.542969,-16872.69,-17609.48,512
1.544922,-16889.06,-17618.21,512
1.546875,-16883.31,-17616.27,512
1.548828,-16897.85,-17621.97,512
1.550781,-16892.8,-17617.55,512
1.552734,-16884.92,-17611.36,512
1.554688,-16886.51,-17622.88,512
1.556641,-16895.36,-17627.16,512
1.558594,-16883.56,-17614.4,512
1.560547,-16894.15,-17613.14,512
1.5625,-16891.76,-17620.31,512
1.564453,-16890.93,-17628.05,512
1.566406,-16895.99,-17623.16,512
1.568359,-16876.51,-17611.36,512
1.570312,-16898.8,-17629.71,512
1.572266,-16898.69,-17626.73,512
1.574219,-16884.84,-17613.67,512
1.576172,-16884.18,-17622.87,512
1.578125,-16891.54,-17617.12,512
1.580078,-16901.94,-17624.12,512
1.582031,-16882.41,-17609.33,512
1.583984,-16891.01,-17625.09,512
1.585938,-16887.27,-17625.09,512
1.587891,-16886.87,-17622.65,512
1.589844,-16870.1,-17606.78,512
1.591797,-16877.73,-17606.73,512
1.59375,-16900.72,-17632.5,512
1.595703,-16885.55,-17616.31,512
1.597656,-16888.78,-17622.55,512
1.599609,-16879.14,-17614.53,512
1.601562,-16890.68,-17615.54,512
1.603516,-16885.42,-17618.59,512
1.605469,-16879.06,-17624.38,512
1.607422,-16881.11,-17623.03,512
1.609375,-16892.47,-17627.83,512
1.611328,-16888.93,-17625.24,512
1.613281,-16893.7,-17628.22,512
1.615234,-16889.41,-17633.36,512
1.617188,-16872.96,-17618.52,512
1.619141,-16892.11,-17632.7,512
1.621094,-16869.85,-17611.09,512
1.623047,-16875.48,-17617.63,512
1.625,-16878.74,-17620.83,512
1.626953,-16904.13,-17630.92,512
1.628906,-16876.64,-17610.58,512
1.630859,-16867.54,-17602.28,512
1.632812,-16881.55,-17622.24,512
1.634766,-16876.89,-17619.21,512
1.636719,-16860.1,-17605.71,512
1.638672,-16863.21,-17614.94,512
1.640625,-16875.89,-17611.2,512
1.642578,-16890.65,-17624.86,512
1.644531,-16878.67,-17623.32,512
1.646484,-16888.79,-17628.57,512
1.648438,-16896.97,-17643.32,512
1.650391,-16872.65,-17622.23,512
1.652344,-16864.49,-17622.25,512
1.654297,-16864.78,-17614.88,512
1.65625,-16882.25,-17625.79,512
1.658203,-16891.88,-17643.67,512
1.660156,-16888.19,-17636.2,512
1.662109,-16881.7,-17627.51,512
1.664062,-16884.73,-17628.09,512
1.666016,-16888.75,-17636.15,512
1.667969,-16877.69,-17624.41,512
1.669922,-16875.15,-17622.83,512
1.671875,-16871.33,-17622.66,512
1.673828,-16861.13,-17604.6,512
1.675781,-16873.58,-17614.28,512
1.677734,-16876.43,-17619.46,512
1.679688,-16875.44,-17618.4,512
1.681641,-16879.89,-17618.51,512
1.683594,-16886.6,-17631.32,512
1.685547,-16882.91,-17631.73,512
1.6875,-16876.04,-17621.22,512
1.689453,-16879.3,-17619.88,512
1.691406,-16876.15,-17619.55,512
1.693359,-16882.14,-17616.26,512
1.695312,-16884.69,-17613.6,512
1.697266,-16884.03,-17611.43,512
1.699219,-16885.14,-17623.02,512
1.701172,-16881.26,-17620.53,512
1.703125,-16881.41,-17625.04,512
1.705078,-16879.31,-17620.76,512
1.707031,-16887.98,-17620.81,512
1.708984,-16871.83,-17606.94,512
1.710938,-16910.27,-17628.73,512
1.712891,-16900.37,-17627.57,512
1.714844,-16870.5,-17618.03,512
1.716797,-16879.23,-17622.66,512
1.71875,-16881.1,-17623.74,512
1.720703,-16898.94,-17636.81,512
1.722656,-16899.08,-17643.05,512
1.724609,-16905.06,-17644.12,512
1.726562,-16904.72,-17639.78,512
1.728516,-16893.68,-17629.58,512
1.730469,-16886.62,-17628.78,512
1.732422,-16889.92,-17636.76,512
1.734375,-16889.28,-17631.27,512
1.736328,-16897.43,-17637.21,512
1.738281,-16881.65,-17625.77,512
1.740234,-16903.52,-17633.45,512
1.742188,-16905.73,-17637.84,512
1.744141,-16895.73,-17630.87,512
1.746094,-16896.04,-17632.61,512
1.748047,-16900.67,-17633.47,512
1.75,-16892.42,-17623.85,512
1.751953,-16890.11,-17628.7,512
1.753906,-16884.71,-17621.8,512
1.755859,-16882.15,-17609.69,512
1.757812,-16887.06,-17617.97,512
1.759766,-16890.25,-17615.81,512
1.761719,-16882.79,-17609.85,512
1.763672,-16896.17,-17628.76,512
1.765625,-16880.32,-17616.35,512
1.767578,-16884.49,-17621.18,512
1.769531,-16905.75,-17638.88,512
1.771484,-16886.71,-17622.76,512
1.773438,-16889.44,-17626.44,512
1.775391,-16893.23,-17636.22,512
1.777344,-16898.7,-17635.39,512
1.779297,-16884.21,-17622.47,512
1.78125,-16892.29,-17624.81,512
1.783203,-16890.62,-17624.29,512
1.785156,-16897.52,-17634.37,512
1.787109,-16884.62,-17608.01,512
1.789062,-16888.49,-17618.57,512
1.791016,-16899.26,-17623.26,512
1.792969,-16879.45,-17610.18,512
1.794922,-16893.57,-17620.56,512
1.796875,-16890.85,-17615.09,512
1.798828,-16893.98,-17623.6,512
1.800781,-16889.05,-17629.84,512
1.802734,-16884.27,-17631.91,512
1.804688,-16886.07,-17627.01,512
1.806641,-16897.85,-17627.11,512
1.808594,-16883.16,-17612.4,512
1.810547,-16902.39,-17632.27,512
1.8125,-16897.74,-17632.62,512
1.814453,-16898.33,-17627.21,512
1.816406,-16886.09,-17617.63,512
1.818359,-16875.8,-17621.8,512
1.820312,-16893.66,-17635.72,512
1.822266,-16881,-17621.25,512
1.824219,-16903.19,-17643.03,512
1.826172,-16888.86,-17617.56,512
1.828125,-16880.04,-17622.91,512
1.830078,-16881.94,-17611.71,512
1.832031,-16908.06,-17637.4,512
1.833984,-16879.53,-17629.81,512
1.835938,-16880.27,-17625.98,512
1.837891,-16891.67,-17631.89,512
1.839844,-16901.13,-17634.28,512
1.841797,-16892,-17634.18,512
1.84375,-16890.51,-17627,512
1.845703,-16877.9,-17607.97,512
1.847656,-16898.71,-17642.84,512
1.849609,-16892.51,-17641.17,512
1.851562,-16888.09,-17632.21,512
1.853516,-16898.88,-17645.57,512
1.855469,-16888.38,-17630.15,512
1.857422,-16896.45,-17636.4,512
1.859375,-16886.23,-17625.25,512
1.861328,-16879.11,-17615.33,512
1.863281,-16901.88,-17632.02,512
1.865234,-16886.91,-17625.36,512
1.867188,-16890.67,-17636.22,512
1.869141,-16885.32,-17629.54,512
1.871094,-16896.67,-17628.4,512
1.873047,-16902.1,-17638.22,512
1.875,-16895.17,-17628.79,512
1.876953,-16891.49,-17614.55,512
1.878906,-16889.8,-17621.25,512
1.880859,-16885.45,-17628.66,512
1.882812,-16887.37,-17631.86,512
1.884766,-16866.81,-17618.76,512
1.886719,-16881.26,-17627.5,512
1.888672,-16883.82,-17620.32,512
1.890625,-16905.62,-17638.04,512
1.892578,-16898.67,-17639.93,512
1.894531,-16899.84,-17636.41,512
1.896484,-16919.91,-17648.97,512
1.898438,-16908.15,-17649,512
1.900391,-16929.29,-17644.69,512
1.902344,-16929.89,-17642.16,512
1.904297,-16884.76,-17636.11,512
1.90625,-16898.03,-17639.32,512
1.908203,-16896.47,-17636.33,512
1.910156,-16889.94,-17644.22,512
1.912109,-16903.7,-17650.82,512
1.914062,-16938.57,-17658.45,512
1.916016,-16904.54,-17658.8,512
1.917969,-16896.27,-17662.54,512
1.919922,-16885.54,-17635.81,512
1.921875,-16932.96,-17650.83,512
1.923828,-16941.08,-17653.99,512
1.925781,-16959.07,-17652.3,512
1.927734,-16905.35,-17674.29,512
1.929688,-16910.41,-17679.71,512
1.931641,-16902.01,-17674.21,512
1.933594,-16913.93,-17684.29,512
1.935547,-16899.09,-17673.88,512
1.9375,-16911.65,-17675.05,512
1.939453,-16916.3,-17675.56,512
1.941406,-16931.65,-17688.79,512
1.943359,-16923.3,-17691.65,512
1.945312,-16904.99,-17677.06,512
1.947266,-16909.86,-17683.55,512
1.949219,-16923.09,-17701.31,512
1.951172,-16911.97,-17698.22,512
1.953125,-16910.78,-17695.86,512
1.955078,-16906.04,-17693.19,512
1.957031,-16908.82,-17691.85,512
1.958984,-16896.95,-17678.85,512
1.960938,-16886.87,-17672.06,512
1.962891,-16888.41,-17684.17,512
1.964844,-16889.06,-17680.26,512
1.966797,-16902.19,-17684.61,512
1.96875,-16883.05,-17678.33,512
1.970703,-16883.46,-17669.59,512
1.972656,-16881.71,-17658.94,512
1.974609,-16875.89,-17651.38,512
1.976562,-16881.62,-17658.54,512
1.978516,-16890.57,-17664.36,512
1.980469,-16894.68,-17660.64,512
1.982422,-16873.82,-17650.02,512
1.984375,-16875.47,-17648.71,512
1.986328,-16881.97,-17648.07,512
1.988281,-16896.67,-17659.62,512
1.990234,-16899.42,-17642.73,512
1.992188,-16914.39,-17642.6,512
1.994141,-16905.71,-17644.97,512
1.996094,-16912.71,-17646.37,512
1.998047,-16928.37,-17659.28,512
2,-16900.83,-17645.37,512
2.001953,-16901.54,-17635.71,512
2.003906,-16911.61,-17642.36,512
2.005859,-16917.91,-17646.23,512
2.007812,-16909.84,-17629.02,512
2.009766,-16914.15,-17638.05,512
2.011719,-16908.69,-17632.27,512
2.013672,-16913.09,-17637.82,512
2.015625,-16930.27,-17643.2,512
2.017578,-16904.91,-17632.27,512
2.019531,-16899.82,-17636.7,512
2.021484,-16907.25,-17628.06,512
2.023438,-16905.27,-17622.12,512
2.025391,-16904.31,-17620.02,512
2.027344,-16915.27,-17628.51,512
2.029297,-16923,-17637.46,512
2.03125,-16905.32,-17619.27,512
2.033203,-16889.58,-17625.8,512
2.035156,-16904.07,-17635.54,512
2.037109,-16897.48,-17626.75,512
2.039062,-16906.54,-17625.35,512
2.041016,-16910.87,-17621.97,512
2.042969,-16918.67,-17620.99,512
2.044922,-16925.32,-17636.35,512
2.046875,-16924.72,-17634.17,512
2.048828,-16909.69,-17627.55,512
2.050781,-16905.72,-17628.8,512
2.052734,-16919.57,-17642.72,512
2.054688,-16918.44,-17632.64,512
2.056641,-16925.15,-17633.04,512
2.058594,-16910.12,-17623.49,512
2.060547,-16919.66,-17632.64,512
2.0625,-16925.13,-17628.74,512
2.064453,-16912.55,-17628.58,512
2.066406,-16908.31,-17620.37,512
2.068359,-16902.65,-17619.19,512
2.070312,-16910.75,-17621.98,512
2.072266,-16919.95,-17631.44,512
2.074219,-16920.33,-17632.79,512
2.076172,-16921.03,-17635.74,512
2.078125,-16885.86,-17610.73,512
2.080078,-16885.58,-17609.29,512
2.082031,-16890.55,-17615.14,512
2.083984,-16884.92,-17602.95,512
2.085938,-16927.66,-17629.32,512
2.087891,-16891.9,-17594.33,512
2.089844,-16893,-17607.25,512
2.091797,-16889.06,-17616.17,512
2.09375,-16888.82,-17615.26,512
2.095703,-16894.5,-17614.54,512
2.097656,-16880.69,-17615.48,512
2.099609,-16888.79,-17622.63,512
2.101562,-16872.16,-17607.42,512
2.103516,-16867.28,-17614.44,512
2.105469,-16884.64,-17626.39,512
2.107422,-16877.73,-17621.82,512
2.109375,-16876.08,-17634.41,512
2.111328,-16877.4,-17640.09,512
2.113281,-16836.78,-17626.3,512
2.115234,-16819.45,-17619.46,512
2.117188,-16808.97,-17628.98,512
2.119141,-16787.52,-17630.62,512
2.121094,-16775.87,-17622.64,512
2.123047,-16758.06,-17633.39,512
2.125,-16744.63,-17646.73,512
2.126953,-16744.98,-17654.68,512
2.128906,-16766.7,-17658.36,512
2.130859,-16817.88,-17654.28,512
2.132812,-16853.39,-17653.17,512
2.134766,-16854.22,-17625.67,512
2.136719,-16879.2,-17610.94,512
2.138672,-16925.52,-17616.1,512
2.140625,-16956.8,-17592.52,512
2.142578,-16977.19,-17584.83,512
2.144531,-16999.7,-17587.94,512
2.146484,-17031.89,-17595.96,512
2.148438,-17033.03,-17593.96,512
2.150391,-17041.6,-17597.59,512
2.152344,-17039.85,-17593.08,512
2.154297,-17010.27,-17584.04,512
2.15625,-17022.76,-17598.72,512
2.158203,-17034.17,-17617.04,512
2.160156,-17006.25,-17601.9,512
2.162109,-17012.29,-17620.6,512
2.164062,-17005.59,-17629.8,512
2.166016,-16976.39,-17609.02,512
2.167969,-16947.64,-17586.74,512
2.169922,-16944.87,-17590.94,512
2.171875,-16945.91,-17592.73,512
2.173828,-16939.26,-17594.28,512
2.175781,-16949.13,-17612.16,512
2.177734,-16922.48,-17594.64,512
2.179688,-16901.96,-17587.91,512
2.181641,-16897.93,-17588.99,512
2.183594,-16881.97,-17578.71,512
2.185547,-16871.53,-17578.19,512
2.1875,-16880.48,-17587.03,512
2.189453,-16886.74,-17592.2,512
2.191406,-16896.86,-17597.01,512
2.193359,-16892.63,-17600.24,512
2.195312,-16885.49,-17597.91,512
2.197266,-16876.26,-17588.69,512
2.199219,-16883.77,-17604.82,512
2.201172,-16880.28,-17598.31,512
2.203125,-16864.8,-17580.21,512
2.205078,-16878.48,-17595.38,512
2.207031,-16891.55,-17610.63,512
2.208984,-16886.38,-17598.22,512
2.210938,-16874.27,-17590.73,512
2.212891,-16870.66,-17594.53,512
2.214844,-16860.84,-17601.03,512
2.216797,-16871.03,-17602.36,512
2.21875,-16865.19,-17592.88,512
2.220703,-16861.3,-17590.32,512
2.222656,-16873.52,-17599.67,512
2.224609,-16866.53,-17586.64,512
2.226562,-16860.21,-17575.4,512
2.228516,-16876.7,-17575.98,512
2.230469,-16881.2,-17584.48,512
2.232422,-16862.82,-17587.11,512
2.234375,-16858.88,-17587.34,512
2.236328,-16856.5,-17587.87,512
2.238281,-16861.91,-17587.46,512
2.240234,-16866.62,-17577.67,512
2.242188,-16874.31,-17587.43,512
2.244141,-16879.6,-17601.19,512
2.246094,-16858.49,-17588.14,512
2.248047,-16879.73,-17589.67,512
2.25,-16883.55,-17583.02,512
2.251953,-16827.96,-17588.58,512
2.253906,-16809.52,-17551.73,512
2.255859,-16860.24,-17562.64,512
2.257812,-16892.74,-17598.38,512
2.259766,-16870.43,-17604.48,512
2.261719,-16909.46,-17608.91,512
2.263672,-16864.55,-17596.14,512
2.265625,-16848.61,-17578.67,512
2.267578,-16833.05,-17569.14,512
2.269531,-16846.9,-17585.63,512
2.271484,-16853.71,-17583.2,512
2.273438,-16891.29,-17618.6,512
2.275391,-16900.64,-17629.38,512
2.277344,-16864.91,-17594.91,512
2.279297,-16829.95,-17563.21,512
2.28125,-16842.65,-17561.48,512
2.283203,-16881.84,-17583.95,512
2.285156,-16859.9,-17599.51,512
2.287109,-16910.31,-17636.87,512
2.289062,-16859.79,-17597.83,512
2.291016,-16842.81,-17565.81,512
2.292969,-16862.09,-17572.85,512
2.294922,-16873.89,-17576.93,512
2.296875,-16859.03,-17592.75,512
2.298828,-16857.28,-17597.12,512
2.300781,-16833.12,-17577.04,512
2.302734,-16843.77,-17583.42,512
2.304688,-16835.69,-17563.41,512
2.306641,-16862.2,-17598.8,512
2.308594,-16928.83,-17669.64,512
2.310547,-16905.64,-17645.21,512
2.3125,-16815.11,-17557.01,512
2.314453,-16859.1,-17602.77,512
2.316406,-16838.7,-17597.74,512
2.318359,-16876.57,-17628.2,512
2.320312,-16873.1,-17622.09,512
2.322266,-16874.37,-17641.89,512
2.324219,-16856.7,-17609.3,512
2.326172,-16825.83,-17572.17,512
2.328125,-16836.63,-17583.54,512
2.330078,-16776.23,-17527.62,512
2.332031,-16795.95,-17547.6,512
2.333984,-16817.87,-17582.94,512
2.335938,-16851.81,-17618.96,512
2.337891,-16811.81,-17580.81,512
2.339844,-16819.35,-17590.7,512
2.341797,-16821.58,-17592.93,512
2.34375,-16798.78,-17573.46,512
2.345703,-16792.12,-17558.34,512
2.347656,-16799.78,-17572.46,512
2.349609,-16790.49,-17575.49,512
2.351562,-16769.62,-17557.12,512
2.353516,-16786.84,-17567.38,512
2.355469,-16791.59,-17575.71,512
2.357422,-16807.92,-17595.39,512
2.359375,-16796.76,-17578.9,512
2.361328,-16786.12,-17572.19,512
2.363281,-16802.95,-17596.02,512
2.365234,-16837.53,-17634.77,512
2.367188,-16824.83,-17627.62,512
2.369141,-16896.85,-17704.62,512
2.371094,-16840.72,-17645.7,512
2.373047,-16764.61,-17572.54,512
2.375,-16745.28,-17534.75,512
2.376953,-16741.79,-17541.59,512
2.378906,-16765.77,-17576.47,512
2.380859,-16778.17,-17579.94,512
2.382812,-16783.5,-17597.54,512
2.384766,-16783.86,-17599,512
2.386719,-16787.05,-17598.04,512
2.388672,-16765.36,-17571.75,512
2.390625,-16759.52,-17575.15,512
2.392578,-16778.41,-17587.1,512
2.394531,-16765.22,-17567.98,512
2.396484,-16775.35,-17590.44,512
2.398438,-16782.15,-17592.16,512
2.400391,-16771.13,-17581.05,512
2.402344,-16754.4,-17581.35,512
2.404297,-16782.62,-17607.32,512
2.40625,-16755.32,-17577.69,512
2.408203,-16753.99,-17582.11,512
2.410156,-16774.2,-17587.34,512
2.412109,-16765.01,-17578.02,512
2.414062,-16761.38,-17593.22,512
2.416016,-16768.38,-17586.48,512
2.417969,-16730.1,-17563.62,512
2.419922,-16766.13,-17588.21,512
2.421875,-16772.56,-17579.94,512
2.423828,-16787.69,-17572.3,512
2.425781,-16778.14,-17588.41,512
2.427734,-16784.54,-17599.01,512
2.429688,-16773.96,-17582.04,512
2.431641,-16750.03,-17551.43,512
2.433594,-16753,-17556.43,512
2.435547,-16775.69,-17566.4,512
2.4375,-16798.42,-17575.85,512
2.439453,-16791.55,-17573.68,512
2.441406,-16782.8,-17561.82,512
2.443359,-16798.99,-17567.72,512
2.445312,-16800.65,-17569.9,512
2.447266,-16812.6,-17566.32,512
2.449219,-16798.21,-17552.22,512
2.451172,-16790.89,-17548.7,512
2.453125,-16793.26,-17553.6,512
2.455078,-16806.94,-17561.33,512
2.457031,-16813.33,-17560.92,512
2.458984,-16824.35,-17563.04,512
2.460938,-16834.06,-17567.54,512
2.462891,-16830.78,-17562.52,512
2.464844,-16842.44,-17582,512
2.466797,-16833.12,-17573.19,512
2.46875,-16817.22,-17553.31,512
2.470703,-16830.55,-17567.78,512
2.472656,-16819.32,-17550.09,512
2.474609,-16823.56,-17550.09,512
2.476562,-16819.52,-17546.76,512
2.478516,-16843.38,-17566.2,512
2.480469,-16830.17,-17554.66,512
2.482422,-16823.98,-17552.84,512
2.484375,-16831.05,-17563.02,512
2.486328,-16835.13,-17567.21,512
2.488281,-16829.29,-17558.34,512
2.490234,-16832.35,-17556.6,512
2.492188,-16833.33,-17555.54,512
2.494141,-16831.51,-17554.93,512
2.496094,-16830.93,-17553.9,512
2.498047,-16834.66,-17560.56,512
2.5,-16844.92,-17567.28,512
2.501953,-16851.83,-17579.1,512
2.503906,-16827.64,-17557.53,512
2.505859,-16836.38,-17560.09,512
2.507812,-16829.1,-17559.57,512
2.509766,-16833.32,-17563.11,512
2.511719,-16820.73,-17548.97,512
2.513672,-16842.42,-17564.36,512
2.515625,-16836.38,-17563.73,512
2.517578,-16826.59,-17560.61,512
2.519531,-16838.51,-17560.9,512
2.521484,-16835.82,-17555.64,512
2.523438,-16823.82,-17551.91,512
2.525391,-16845.31,-17569.03,512
2.527344,-16859.13,-17581.01,512
2.529297,-16841.57,-17566.2,512
2.53125,-16866.82,-17585.47,512
2.533203,-16855.12,-17586.16,512
2.535156,-16836.93,-17560.37,512
2.537109,-16845.41,-17560.53,512
2.539062,-16837.28,-17565.51,512
2.541016,-16836.65,-17555.46,512
2.542969,-16841.66,-17564.13,512
2.544922,-16846.33,-17556.13,512
2.546875,-16840.58,-17544.63,512
2.548828,-16836.25,-17550.99,512
2.550781,-16841.83,-17545.51,512
2.552734,-16836.19,-17543.42,512
2.554688,-16852.13,-17538.41,512
2.556641,-16846.67,-17549.94,512
2.558594,-16799.21,-17542.56,512
2.560547,-16837.38,-17552.03,512
2.5625,-16832.01,-17542.63,512
2.564453,-16848.67,-17550.27,512
2.566406,-16852.44,-17560.15,512
2.568359,-16826.39,-17550.2,512
2.570312,-16848.89,-17563.49,512
2.572266,-16851.26,-17570.56,512
2.574219,-16840.87,-17562.34,512
2.576172,-16863.14,-17571.05,512
2.578125,-16853.4,-17563.11,512
2.580078,-16849.21,-17577.5,512
2.582031,-16833.26,-17553.41,512
2.583984,-16842.53,-17565.95,512
2.585938,-16835.43,-17571.19,512
2.587891,-16838.76,-17568.71,512
2.589844,-16833.03,-17554.76,512
2.591797,-16842.82,-17570.54,512
2.59375,-16838.09,-17575.56,512
2.595703,-16828.96,-17565.18,512
2.597656,-16819.39,-17558.33,512
2.599609,-16832.75,-17572.14,512
2.601562,-16825.37,-17560.69,512
2.603516,-16836.43,-17568.41,512
2.605469,-16826.43,-17559.53,512
2.607422,-16826.2,-17559.76,512
2.609375,-16839.67,-17565.32,512
2.611328,-16842.44,-17563.41,512
2.613281,-16827.7,-17559.9,512
2.615234,-16835.45,-17565.01,512
2.617188,-16836.8,-17569.6,512
2.619141,-16835.74,-17565.36,512
2.621094,-16850.48,-17571.29,512
2.623047,-16850.74,-17576.13,512
2.625,-16842.95,-17567.96,512
2.626953,-16836.62,-17556.57,512
2.628906,-16833.67,-17554.33,512
2.630859,-16830.21,-17555.74,512
2.632812,-16837.04,-17561,512
2.634766,-16862.15,-17585.1,512
2.636719,-16846.18,-17566.38,512
2.638672,-16833.62,-17553.33,512
2.640625,-16856.95,-17581.56,512
2.642578,-16849.1,-17572.97,512
2.644531,-16842.86,-17560.65,512
2.646484,-16836.33,-17557.53,512
2.648438,-16839,-17571.99,512
2.650391,-16843,-17570.82,512
2.652344,-16859.6,-17574.71,512
2.654297,-16861.75,-17581.8,512
2.65625,-16848.3,-17572.61,512
2.658203,-16852.46,-17575.43,512
2.660156,-16858.14,-17578.95,512
2.662109,-16851.03,-17569.58,512
2.664062,-16853.1,-17561.64,512
2.666016,-16847.88,-17567.89,512
2.667969,-16844.92,-17566.92,512
2.669922,-16849.86,-17575.64,512
2.671875,-16843.18,-17567.04,512
2.673828,-16843.48,-17560.14,512
2.675781,-16850.8,-17562.79,512
2.677734,-16858.27,-17571.92,512
2.679688,-16844.46,-17562.18,512
2.681641,-16846.66,-17562.54,512
2.683594,-16848.74,-17567.88,512
2.685547,-16854.43,-17575.6,512
2.6875,-16838.23,-17563.98,512
2.689453,-16845.22,-17570.06,512
2.691406,-16854.9,-17566.18,512
2.693359,-16864.31,-17564.67,512
2.695312,-16858.19,-17567.13,512
2.697266,-16855.32,-17566.56,512
2.699219,-16852.96,-17571,512
2.701172,-16844.57,-17561.04,512
2.703125,-16868.89,-17570.62,512
2.705078,-16853.06,-17574.51,512
2.707031,-16867.62,-17580.5,512
2.708984,-16868.48,-17578.83,512
2.710938,-16860.02,-17564.52,512
2.712891,-16850.01,-17563.69,512
2.714844,-16853.24,-17568.84,512
2.716797,-16857.22,-17568.7,512
2.71875,-16857.14,-17576.44,512
2.720703,-16860.86,-17583.31,512
2.722656,-16852.82,-17573.43,512
2.724609,-16856.1,-17571.96,512
2.726562,-16844.37,-17554.98,512
2.728516,-16855.26,-17564.75,512
2.730469,-16849.35,-17571.47,512
2.732422,-16836.79,-17563.13,512
2.734375,-16830.86,-17558.74,512
2.736328,-16839.68,-17572.15,512
2.738281,-16844.09,-17564.18,512
2.740234,-16835.38,-17557.35,512
2.742188,-16853.06,-17568.97,512
2.744141,-16857.71,-17582.63,512
2.746094,-16825.28,-17552.21,512
2.748047,-16857.97,-17572.26,512
2.75,-16876.13,-17584.12,512
2.751953,-16854.54,-17569.69,512
2.753906,-16855.62,-17579.92,512
2.755859,-16852.83,-17577.43,512
2.757812,-16874.4,-17581.53,512
2.759766,-16867.52,-17575.81,512
2.761719,-16861.85,-17579.97,512
2.763672,-16861.53,-17583.92,512
2.765625,-16881.04,-17597.43,512
2.767578,-16871.22,-17592.02,512
2.769531,-16863.96,-17587.82,512
2.771484,-16875.43,-17601.42,512
2.773438,-16872.32,-17587.92,512
2.775391,-16866.14,-17581.89,512
2.777344,-16871.83,-17588.18,512
2.779297,-16861.19,-17574.58,512
2.78125,-16866.65,-17586.04,512
2.783203,-16879.34,-17600.25,512
2.785156,-16876.2,-17593.46,512
2.787109,-16872.3,-17585.19,512
2.789062,-16872.9,-17584.86,512
2.791016,-16869.67,-17578.37,512
2.792969,-16864.66,-17573.64,512
2.794922,-16875.9,-17584.5,512
2.796875,-16874.88,-17581.44,512
2.798828,-16867.69,-17579.22,512
2.800781,-16859.07,-17575.51,512
2.802734,-16850.44,-17569.12,512
2.804688,-16853.79,-17572.25,512
2.806641,-16850.81,-17570.66,512
2.808594,-16854.26,-17563.12,512
2.810547,-16845.65,-17551.36,512
2.8125,-16859.92,-17566.89,512
2.814453,-16864.97,-17570.37,512
2.816406,-16854.78,-17561.47,512
2.818359,-16866.79,-17582.78,512
2.820312,-16859.49,-17580.87,512
2.822266,-16870.42,-17578.41,512
2.824219,-16882.27,-17593.04,512
2.826172,-16864.16,-17575.06,512
2.828125,-16874.54,-17579.15,512
2.830078,-16870.6,-17580.91,512
2.832031,-16882.78,-17582.46,512
2.833984,-16874.38,-17579.04,512
2.835938,-16855.81,-17570.82,512
2.837891,-16865.49,-17585.82,512
2.839844,-16860.75,-17576.87,512
2.841797,-16876.98,-17580.18,512
2.84375,-16883.32,-17593.54,512
2.845703,-16870.17,-17581.65,512
2.847656,-16870.11,-17580.31,512
2.849609,-16855.58,-17571.13,512
2.851562,-16865.64,-17584.13,512
2.853516,-16866.64,-17597.49,512
2.855469,-16867.48,-17587.05,512
2.857422,-16873.62,-17589.54,512
2.859375,-16870.3,-17585.6,512
2.861328,-16861.55,-17576.87,512
2.863281,-16862.99,-17591.69,512
2.865234,-16865.8,-17593.98,512
2.867188,-16867.36,-17593.78,512
2.869141,-16882.88,-17603.83,512
2.871094,-16879.99,-17591.81,512
2.873047,-16866.99,-17591.6,512
2.875,-16866.52,-17586.79,512
2.876953,-16879.81,-17594.56,512
2.878906,-16876.17,-17592.7,512
2.880859,-16866.59,-17591.68,512
2.882812,-16867.51,-17596.16,512
2.884766,-16863.01,-17591.72,512
2.886719,-16875.01,-17602.4,512
2.888672,-16870.15,-17598.4,512
2.890625,-16882.23,-17606.02,512
2.892578,-16881.82,-17603.2,512
2.894531,-16892.6,-17610.26,512
2.896484,-16877.78,-17599.92,512
2.898438,-16878.71,-17600.62,512
2.900391,-16868.49,-17588.57,512
2.902344,-16873.63,-17590.65,512
2.904297,-16870.09,-17592,512
2.90625,-16873.69,-17594.53,512
2.908203,-16869.93,-17586.47,512
2.910156,-16875.21,-17595.16,512
2.912109,-16887.8,-17604.6,512
2.914062,-16876.6,-17594.58,512
2.916016,-16872.29,-17598.7,512
2.917969,-16868.84,-17598,512
2.919922,-16878.08,-17609.41,512
2.921875,-16867.07,-17591.51,512
2.923828,-16869.11,-17588.87,512
2.925781,-16878.92,-17590.79,512
2.927734,-16875.89,-17597.08,512
2.929688,-16876.39,-17606.53,512
2.931641,-16870.31,-17589.45,512
2.933594,-16857.33,-17580.97,512
2.935547,-16871.96,-17597.89,512
2.9375,-16868.47,-17593.15,512
2.939453,-16859.16,-17581.1,512
2.941406,-16871.61,-17592.13,512
2.943359,-16863.21,-17584,512
2.945312,-16870.27,-17595.84,512
2.947266,-16874.04,-17607.4,512
2.949219,-16857.04,-17584.59,512
2.951172,-16847.07,-17583.18,512
2.953125,-16848.78,-17586.95,512
2.955078,-16855.88,-17594.87,512
2.957031,-16851.68,-17599.02,512
2.958984,-16852.84,-17594.03,512
2.960938,-16855.23,-17596.4,512
2.962891,-16852.44,-17594.47,512
2.964844,-16850.43,-17591.45,512
2.966797,-16851.69,-17590.68,512
2.96875,-16849.37,-17593.52,512
2.970703,-16848.89,-17595.24,512
2.972656,-16850.4,-17592.28,512
2.974609,-16859.88,-17604.54,512
2.976562,-16850.43,-17601.08,512
2.978516,-16853.83,-17603.42,512
2.980469,-16876.13,-17610.59,512
2.982422,-16856.28,-17599.48,512
2.984375,-16855.25,-17602.37,512
2.986328,-16858.58,-17610.61,512
2.988281,-16847.27,-17607.45,512
2.990234,-16846.95,-17601.05,512
2.992188,-16854.56,-17609.59,512
2.994141,-16857.59,-17614.93,512
2.996094,-16858.75,-17608.92,512
2.998047,-16832.98,-17600.28,512
3,-16837.2,-17607.25,512
3.001953,-16844.88,-17608.49,512
3.003906,-16824.06,-17593.13,512
3.005859,-16841.96,-17608.68,512
3.007812,-16831.93,-17595.45,512
3.009766,-16843.43,-17587.71,512
3.011719,-16838.16,-17592.07,512
3.013672,-16824.87,-17581.06,512
3.015625,-16837.01,-17581.63,512
3.017578,-16844.1,-17582.9,512
3.019531,-16849.13,-17588.57,512
3.021484,-16850.51,-17592.22,512
3.023438,-16858.07,-17593.23,512
3.025391,-16845.8,-17577.97,512
3.027344,-16870.85,-17588.23,512
3.029297,-16877.51,-17590.05,512
3.03125,-16868.89,-17581.47,512
3.033203,-16886.72,-17585.22,512
3.035156,-16872,-17580.37,512
3.037109,-16868.98,-17577.51,512
3.039062,-16876.81,-17575.52,512
3.041016,-16872.05,-17577.09,512
3.042969,-16884.22,-17583.99,512
3.044922,-16878.34,-17579.09,512
3.046875,-16884.25,-17586.59,512
3.048828,-16884.44,-17582.36,512
3.050781,-16872.75,-17572.06,512
3.052734,-16869.33,-17568.44,512
3.054688,-16860.83,-17563.64,512
3.056641,-16863.5,-17559.77,512
3.058594,-16868.71,-17557.22,512
3.060547,-16876.53,-17579.45,512
3.0625,-16875.44,-17576.41,512
3.064453,-16863.57,-17569.49,512
3.066406,-16859.58,-17569.92,512
3.068359,-16862.1,-17574.54,512
3.070312,-16865.07,-17575.68,512
3.072266,-16848.05,-17559.65,512
3.074219,-16869.12,-17571.26,512
3.076172,-16876.37,-17573.75,512
3.078125,-16863.87,-17563.99,512
3.080078,-16875.22,-17566.98,512
3.082031,-16887.46,-17575.12,512
3.083984,-16867.48,-17560.21,512
3.085938,-16872.86,-17570.77,512
3.087891,-16871.5,-17570.34,512
3.089844,-16871.79,-17567.68,512
3.091797,-16876.58,-17566.29,512
3.09375,-16890.28,-17574.29,512
3.095703,-16871.93,-17562.36,512
3.097656,-16879.72,-17576.15,512
3.099609,-16879.93,-17581.23,512
3.101562,-16861.44,-17561.77,512
3.103516,-16864.03,-17558.28,512
3.105469,-16884.69,-17578.31,512
3.107422,-16869.18,-17566.97,512
3.109375,-16874.33,-17569.37,512
3.111328,-16884.64,-17575.19,512
3.113281,-16877.75,-17573.11,512
3.115234,-16879.34,-17577.19,512
3.117188,-16871.04,-17563.1,512
3.119141,-16868.4,-17569.95,512
3.121094,-16873.08,-17581.84,512
3.123047,-16874.16,-17577.83,512
3.125,-16880.29,-17587.08,512
3.126953,-16871.81,-17570.53,512
3.128906,-16880.6,-17574.5,512
3.130859,-16863.74,-17572.22,512
3.132812,-16882.09,-17588.43,512
3.134766,-16882.92,-17584.87,512
3.136719,-16879.78,-17582.68,512
3.138672,-16863.08,-17572.12,512
3.140625,-16860.95,-17575.41,512
3.142578,-16861.59,-17580.91,512
3.144531,-16850.19,-17579.37,512
3.146484,-16847.61,-17589.44,512
3.148438,-16832.98,-17587.12,512
3.150391,-16820.51,-17584.81,512
3.152344,-16795.57,-17579.04,512
3.154297,-16770.55,-17588.55,512
3.15625,-16754.11,-17585.84,512
3.158203,-16737.89,-17584.89,512
3.160156,-16730.14,-17609.28,512
3.162109,-16707.97,-17603.06,512
3.164062,-16711.65,-17608.82,512
3.166016,-16750.19,-17606.34,512
3.167969,-16799.91,-17599.13,512
3.169922,-16822.86,-17592.64,512
3.171875,-16842.03,-17579.88,512
3.173828,-16875.5,-17573.24,512
3.175781,-16907.05,-17559.42,512
3.177734,-16948.45,-17561.23,512
3.179688,-16970.14,-17544.84,512
3.181641,-16987.81,-17542.78,512
3.183594,-17012.88,-17552.2,512
3.185547,-17013.09,-17545.36,512
3.1875,-17021.95,-17555.19,512
3.189453,-17022.25,-17560.73,512
3.191406,-17027.58,-17565.68,512
3.193359,-17009.88,-17557.31,512
3.195312,-16979.91,-17547.12,512
3.197266,-16973.73,-17555.76,512
3.199219,-16952.51,-17548.43,512
3.201172,-16947.76,-17554.45,512
3.203125,-16932.4,-17550.69,512
3.205078,-16939.58,-17556.75,512
3.207031,-16922.47,-17548.13,512
3.208984,-16907.1,-17541.59,512
3.210938,-16898.82,-17540.19,512
3.212891,-16907.88,-17565.14,512
3.214844,-16886.62,-17556.48,512
3.216797,-16879.73,-17556.67,512
3.21875,-16889.38,-17562.09,512
3.220703,-16897.15,-17572.18,512
3.222656,-16897.09,-17571.53,512
3.224609,-16884.39,-17570.85,512
3.226562,-16872.55,-17561.6,512
3.228516,-16894.67,-17573.68,512
3.230469,-16878.9,-17563.1,512
3.232422,-16863.27,-17557.89,512
3.234375,-16867.29,-17560.19,512
3.236328,-16874.63,-17570.5,512
3.238281,-16861.6,-17564.89,512
3.240234,-16863.36,-17559.01,512
3.242188,-16871.36,-17560.13,512
3.244141,-16875.59,-17568.73,512
3.246094,-16873.5,-17565.55,512
3.248047,-16882.51,-17573.4,512
3.25,-16882.78,-17580.82,512
3.251953,-16867.97,-17568.04,512
3.253906,-16866.92,-17565.82,512
3.255859,-16874.59,-17572.15,512
3.257812,-16871.98,-17565.21,512
3.259766,-16867.46,-17563.16,512
3.261719,-16874.02,-17569.46,512
3.263672,-16868.26,-17567.45,512
3.265625,-16850.9,-17550.22,512
3.267578,-16860.43,-17568.51,512
3.269531,-16856.99,-17573.98,512
3.271484,-16848.95,-17562.67,512
3.273438,-16856.97,-17563.36,512
3.275391,-16882.98,-17576.31,512
3.277344,-16864.36,-17560.68,512
3.279297,-16863.14,-17565.68,512
3.28125,-16879.95,-17583.99,512
3.283203,-16865.41,-17577.06,512
3.285156,-16850.92,-17569.37,512
3.287109,-16851.28,-17571.59,512
3.289062,-16855.12,-17576.45,512
3.291016,-16860.03,-17575.02,512
3.292969,-16869.29,-17572.59,512
3.294922,-16876.62,-17575.46,512
3.296875,-16870.02,-17568.66,512
3.298828,-16866.32,-17570.17,512
3.300781,-16871.5,-17584.91,512
3.302734,-16862.33,-17575.99,512
3.304688,-16861.86,-17569.29,512
3.306641,-16856.35,-17568.56,512
3.308594,-16855.12,-17567.41,512
3.310547,-16866.42,-17573.31,512
3.3125,-16858.28,-17562.22,512
3.314453,-16848.63,-17557.9,512
3.316406,-16859.22,-17571.35,512
3.318359,-16851.66,-17570.27,512
3.320312,-16846.82,-17560.88,512
3.322266,-16857.19,-17564.38,512
3.324219,-16869.04,-17574.03,512
3.326172,-16857.61,-17561.07,512
3.328125,-16856.03,-17561.62,512
3.330078,-16852.6,-17563.43,512
3.332031,-16857,-17567.64,512
3.333984,-16864.13,-17578.42,512
3.335938,-16865.66,-17577.03,512
3.337891,-16863.23,-17579.25,512
3.339844,-16854.88,-17566.34,512
3.341797,-16864,-17573.61,512
3.34375,-16862.2,-17575.89,512
3.345703,-16856.28,-17565.42,512
3.347656,-16854.38,-17561.19,512
3.349609,-16850.71,-17573.26,512
3.351562,-16842.74,-17565.52,512
3.353516,-16841.52,-17563.73,512
3.355469,-16845.86,-17563.72,512
3.357422,-16854.59,-17563.61,512
3.359375,-16849.48,-17558.65,512
3.361328,-16856.14,-17566.45,512
3.363281,-16847.76,-17561.87,512
3.365234,-16843.27,-17565.49,512
3.367188,-16836.49,-17563.62,512
3.369141,-16844.45,-17575.59,512
3.371094,-16833.32,-17562.99,512
3.373047,-16842.04,-17573.43,512
3.375,-16846.51,-17581.33,512
3.376953,-16840.19,-17576.68,512
3.378906,-16837.2,-17575.66,512
3.380859,-16845.45,-17579.72,512
3.382812,-16825.73,-17567.26,512
3.384766,-16815.51,-17563.69,512
3.386719,-16828.52,-17578.13,512
3.388672,-16824.77,-17577.45,512
3.390625,-16819.96,-17567.39,512
3.392578,-16808.56,-17558.04,512
3.394531,-16808.09,-17561.15,512
3.396484,-16819.69,-17575.26,512
3.398438,-16811.21,-17576.25,512
3.400391,-16812.47,-17577.35,512
3.402344,-16818.8,-17588.03,512
3.404297,-16810.68,-17579.27,512
3.40625,-16810.71,-17577.17,512
3.408203,-16797.81,-17572.64,512
3.410156,-16814.15,-17580.08,512
3.412109,-16810.48,-17572.69,512
3.414062,-16793.11,-17570.45,512
3.416016,-16793.05,-17574.7,512
3.417969,-16798.15,-17584.12,512
3.419922,-16804.04,-17586.3,512
3.421875,-16799.37,-17580.39,512
3.423828,-16799.22,-17581.31,512
3.425781,-16804.26,-17593.25,512
3.427734,-16789.39,-17587.45,512
3.429688,-16805.69,-17593.64,512
3.431641,-16800.35,-17594.8,512
3.433594,-16778.9,-17587.29,512
3.435547,-16764.83,-17580.48,512
3.4375,-16780.66,-17587.99,512
3.439453,-16770.08,-17581.29,512
3.441406,-16773.22,-17581.9,512
3.443359,-16775.98,-17575.52,512
3.445312,-16769.96,-17575.1,512
3.447266,-16775.18,-17584.39,512
3.449219,-16772.3,-17592.66,512
3.451172,-16779.16,-17605.21,512
3.453125,-16776.96,-17604.13,512
3.455078,-16780.21,-17609.2,512
3.457031,-16801.71,-17615,512
3.458984,-16784.02,-17595.37,512
3.460938,-16789.38,-17592.53,512
3.462891,-16803.03,-17596.96,512
3.464844,-16789.64,-17588.01,512
3.466797,-16789.24,-17589.23,512
3.46875,-16810.94,-17600.87,512
3.470703,-16803.14,-17588.13,512
3.472656,-16803.58,-17587.43,512
3.474609,-16809.42,-17582.39,512
3.476562,-16814.29,-17575.45,512
3.478516,-16827.77,-17583.6,512
3.480469,-16816.18,-17571.5,512
3.482422,-16822.81,-17576.4,512
3.484375,-16828.54,-17580.96,512
3.486328,-16824.61,-17580.14,512
3.488281,-16820.75,-17571.58,512
3.490234,-16826.51,-17565.87,512
3.492188,-16835.78,-17567.82,512
3.494141,-16846.65,-17579.81,512
3.496094,-16840.92,-17570.27,512
3.498047,-16839.5,-17572.45,512
3.5,-16853.76,-17586.42,512
3.501953,-16858.06,-17585.26,512
3.503906,-16856.54,-17582.85,512
3.505859,-16869.78,-17588.59,512
3.507812,-16864.47,-17581.46,512
3.509766,-16854.09,-17571.65,512
3.511719,-16852.56,-17560.12,512
3.513672,-16861.89,-17573.85,512
3.515625,-16868.68,-17580.22,512
3.517578,-16870.58,-17573.99,512
3.519531,-16868.11,-17583.13,512
3.521484,-16860.75,-17577.07,512
3.523438,-16866.64,-17575.47,512
3.525391,-16857.89,-17567.36,512
3.527344,-16848.02,-17554.56,512
3.529297,-16857.44,-17568.82,512
3.53125,-16862.22,-17574.57,512
3.533203,-16844.66,-17559.83,512
3.535156,-16846.21,-17567.58,512
3.537109,-16851.74,-17561.6,512
3.539062,-16854.55,-17562.34,512
3.541016,-16855.65,-17557.47,512
3.542969,-16865.64,-17564.09,512
3.544922,-16859.82,-17560.94,512
3.546875,-16868.72,-17570.9,512
3.548828,-16873.81,-17571.21,512
3.550781,-16864.49,-17575.42,512
3.552734,-16863.37,-17573.02,512
3.554688,-16861.9,-17570.61,512
3.556641,-16866.19,-17575.82,512
3.558594,-16869.08,-17579.03,512
3.560547,-16861.85,-17569.88,512
3.5625,-16872.3,-17570.12,512
3.564453,-16880.9,-17583.01,512
3.566406,-16864.39,-17572.52,512
3.568359,-16864.78,-17568.12,512
3.570312,-16860.82,-17565.12,512
3.572266,-16856.71,-17552.7,512
3.574219,-16865.95,-17574.75,512
3.576172,-16878.38,-17578.25,512
3.578125,-16870.47,-17571.87,512
3.580078,-16873.6,-17579.49,512
3.582031,-16874.79,-17572.44,512
3.583984,-16884.24,-17579.64,512
3.585938,-16870.35,-17570.83,512
3.587891,-16870.67,-17568.54,512
3.589844,-16874.61,-17571.88,512
3.591797,-16870.74,-17570.96,512
3.59375,-16874.85,-17566.18,512
3.595703,-16873.05,-17574.55,512
3.597656,-16868.26,-17574.97,512
3.599609,-16863.85,-17572.13,512
3.601562,-16855,-17563.65,512
3.603516,-16861.14,-17566.74,512
3.605469,-16855.07,-17550.1,512
3.607422,-16863.15,-17562.54,512
3.609375,-16867.42,-17572.38,512
3.611328,-16862.7,-17559.49,512
3.613281,-16860.94,-17555.21,512
3.615234,-16855.59,-17550.66,512
3.617188,-16866.73,-17563.96,512
3.619141,-16864.82,-17562.97,512
3.621094,-16875.5,-17569.86,512
3.623047,-16881.75,-17577.48,512
3.625,-16882.22,-17572.37,512
3.626953,-16868.97,-17562.4,512
3.628906,-16873.95,-17570.65,512
3.630859,-16878.46,-17574.53,512
3.632812,-16867.53,-17570.92,512
3.634766,-16858.98,-17569.73,512
3.636719,-16871.98,-17576.22,512
3.638672,-16879.64,-17571.46,512
3.640625,-16866.44,-17561.55,512
3.642578,-16861.24,-17568.71,512
3.644531,-16865.31,-17567.21,512
3.646484,-16874.21,-17568.28,512
3.648438,-16874.8,-17578.84,512
3.650391,-16874.34,-17575.11,512
3.652344,-16866.42,-17574.4,512
3.654297,-16870.94,-17578.76,512
3.65625,-16864.08,-17565.21,512
3.658203,-16862.97,-17571.06,512
3.660156,-16862.96,-17562.07,512
3.662109,-16865.29,-17562.36,512
3.664062,-16882.57,-17571.88,512
3.666016,-16879.71,-17560.71,512
3.667969,-16868.21,-17566.87,512
3.669922,-16846.17,-17553.24,512
3.671875,-16853.11,-17552.46,512
3.673828,-16870.9,-17567.22,512
3.675781,-16868.72,-17564.51,512
3.677734,-16868.45,-17558.06,512
3.679688,-16876.44,-17563.53,512
3.681641,-16860.76,-17554.74,512
3.683594,-16867.11,-17567.37,512
3.685547,-16870.2,-17569.88,512
3.6875,-16864.94,-17566.04,512
3.689453,-16874.64,-17570.52,512
3.691406,-16873.84,-17563.9,512
3.693359,-16886.47,-17577.9,512
3.695312,-16879.22,-17578.8,512
3.697266,-16869.81,-17567.98,512
3.699219,-16874.91,-17573.41,512
3.701172,-16882.04,-17585.91,512
3.703125,-16865.73,-17567.62,512
3.705078,-16871.08,-17568.77,512
3.707031,-16876.01,-17583.54,512
3.708984,-16880.13,-17581.33,512
3.710938,-16881.29,-17585.21,512
3.712891,-16868.17,-17572.8,512
3.714844,-16873.32,-17574.13,512
3.716797,-16871.73,-17579.46,512
3.71875,-16852.47,-17564.88,512
3.720703,-16861.91,-17568.07,512
3.722656,-16865.06,-17566.33,512
3.724609,-16877.57,-17571.22,512
3.726562,-16878.29,-17570.34,512
3.728516,-16864.14,-17557.35,512
3.730469,-16855.97,-17553.18,512
3.732422,-16871.66,-17571.72,512
3.734375,-16855.69,-17556.91,512
3.736328,-16861.89,-17568.6,512
3.738281,-16861.51,-17563.19,512
3.740234,-16860.74,-17563.31,512
3.742188,-16861.14,-17563.27,512
3.744141,-16882.7,-17579.13,512
3.746094,-16870.9,-17580.64,512
3.748047,-16862.97,-17568.41,512
3.75,-16855.69,-17562.17,512
3.751953,-16861.42,-17567.8,512
3.753906,-16862.32,-17564.51,512
3.755859,-16864.05,-17569.73,512
3.757812,-16855.95,-17557.87,512
3.759766,-16865.61,-17558.97,512
3.761719,-16879.09,-17578.44,512
3.763672,-16872.51,-17573.75,512
3.765625,-16874.42,-17573.7,512
3.767578,-16864.2,-17571.29,512
3.769531,-16869.73,-17573.74,512
3.771484,-16878.08,-17578.8,512
3.773438,-16876.56,-17580.77,512
3.775391,-16859.82,-17570.85,512
3.777344,-16866.28,-17571.41,512
3.779297,-16869.17,-17572.2,512
3.78125,-16871.45,-17575.92,512
3.783203,-16876.46,-17579.42,512
3.785156,-16865.08,-17569.71,512
3.787109,-16873.87,-17578.4,512
3.789062,-16872.65,-17569.48,512
3.791016,-16873.87,-17569.35,512
3.792969,-16880.2,-17575.04,512
3.794922,-16881.63,-17578.09,512
3.796875,-16859.63,-17564.44,512
3.798828,-16854.23,-17560.65,512
3.800781,-16864.38,-17572.91,512
3.802734,-16848.04,-17563.77,512
3.804688,-16833.61,-17544,512
3.806641,-16860,-17567.1,512
3.808594,-16854.96,-17559.09,512
3.810547,-16858.88,-17559.68,512
3.8125,-16865.93,-17569.77,512
3.814453,-16856.96,-17565.38,512
3.816406,-16849.21,-17564.03,512
3.818359,-16851.24,-17571.09,512
3.820312,-16851.55,-17571.16,512
3.822266,-16853.64,-17564.71,512
3.824219,-16863.04,-17561.04,512
3.826172,-16857.87,-17555.45,512
3.828125,-16855.03,-17552.75,512
3.830078,-16868.87,-17571.26,512
3.832031,-16853.69,-17552.92,512
3.833984,-16863.09,-17558.21,512
3.835938,-16870.07,-17570.37,512
3.837891,-16864,-17566.1,512
3.839844,-16855.38,-17557.65,512
3.841797,-16847.59,-17545.25,512
3.84375,-16857.2,-17557.34,512
3.845703,-16863.88,-17565.54,512
3.847656,-16847.6,-17553.47,512
3.849609,-16853.96,-17561.72,512
3.851562,-16854.82,-17564.18,512
3.853516,-16845.13,-17558.3,512
3.855469,-16845.92,-17559.76,512
3.857422,-16845.14,-17549.77,512
3.859375,-16864.09,-17559.68,512
3.861328,-16859.84,-17557.44,512
3.863281,-16852.63,-17553.84,512
3.865234,-16845.36,-17550.25,512
3.867188,-16844.19,-17555.67,512
3.869141,-16855.83,-17565.23,512
3.871094,-16842.27,-17559.64,512
3.873047,-16868.05,-17566.05,512
3.875,-16875.9,-17558.66,512
3.876953,-16863.87,-17554.99,512
3.878906,-16875.97,-17564.66,512
3.880859,-16863.7,-17549.68,512
3.882812,-16858.69,-17558.11,512
3.884766,-16858.06,-17559.53,512
3.886719,-16851.72,-17553.57,512
3.888672,-16858.74,-17552.27,512
3.890625,-16870.77,-17561.12,512
3.892578,-16865.35,-17560.74,512
3.894531,-16846.14,-17541.85,512
3.896484,-16856.58,-17547.38,512
3.898438,-16865.23,-17551.97,512
3.900391,-16863.05,-17549.15,512
3.902344,-16862.94,-17546.93,512
3.904297,-16865.09,-17554.12,512
3.90625,-16857.08,-17548.34,512
3.908203,-16858,-17551.84,512
3.910156,-16870.32,-17555.45,512
3.912109,-16872.26,-17559.24,512
3.914062,-16862.72,-17562.11,512
3.916016,-16853.9,-17547.95,512
3.917969,-16856.45,-17548.56,512
3.919922,-16861.46,-17554.74,512
3.921875,-16865.05,-17558.35,512
3.923828,-16876.75,-17559.64,512
3.925781,-16863.14,-17550.45,512
3.927734,-16859.08,-17549.78,512
3.929688,-16863.93,-17563.33,512
3.931641,-16861.08,-17559.91,512
3.933594,-16868.69,-17566.22,512
3.935547,-16853.25,-17550.62,512
3.9375,-16846.11,-17554.86,512
3.939453,-16853.45,-17563.18,512
3.941406,-16849.34,-17555.99,512
3.943359,-16846.91,-17549.3,512
3.945312,-16856.53,-17559,512
3.947266,-16843.8,-17552.05,512
3.949219,-16846.66,-17561.71,512
3.951172,-16849.66,-17561.23,512
3.953125,-16849.17,-17565.08,512
3.955078,-16858.33,-17567.79,512
3.957031,-16863.34,-17569.86,512
3.958984,-16862.75,-17560.63,512
3.960938,-16863.69,-17556.75,512
3.962891,-16864.04,-17555.81,512
3.964844,-16868.45,-17576.37,512
3.966797,-16860.94,-17574.87,512
3.96875,-16856.09,-17566.78,512
3.970703,-16862.28,-17571.67,512
3.972656,-16860.02,-17563.9,512
3.974609,-16847.96,-17553.25,512
3.976562,-16855.17,-17556.52,512
3.978516,-16865.75,-17557,512
3.980469,-16870.79,-17562.16,512
3.982422,-16870.33,-17564.11,512
3.984375,-16863.07,-17564.54,512
3.986328,-16877.18,-17588.97,512
3.988281,-16883.62,-17589.28,512
3.990234,-16871.24,-17578.32,512
3.992188,-16864.26,-17570.85,512
3.994141,-16862.86,-17568.12,512
3.996094,-16875.19,-17580.46,512
3.998047,-16878.03,-17580.02,512
4,-16866.21,-17572.31,512
4.001953,-16864.18,-17572.64,512
4.003906,-16875.14,-17583.06,512
4.005859,-16869.57,-17567.99,512
4.007812,-16862.67,-17562.84,512
4.009766,-16863.38,-17566.3,512
4.011719,-16854.22,-17570.13,512
4.013672,-16848.86,-17563.58,512
4.015625,-16858.2,-17565.6,512
4.017578,-16860.79,-17569.03,512
4.019531,-16852.19,-17571.16,512
4.021484,-16846.13,-17552.78,512
4.023438,-16852.01,-17551.98,512
4.025391,-16844.59,-17553.84,512
4.027344,-16851.21,-17575.57,512
4.029297,-16831.99,-17541.5,512
4.03125,-16842.54,-17564.77,512
4.033203,-16855.41,-17583.29,512
4.035156,-16840.13,-17568.46,512
4.037109,-16852.66,-17577.57,512
4.039062,-16860.96,-17575.43,512
4.041016,-16861.37,-17575.88,512
4.042969,-16862.13,-17583.55,512
4.044922,-16854.43,-17574.48,512
4.046875,-16862.13,-17580.75,512
4.048828,-16860.78,-17583.32,512
4.050781,-16851.41,-17574.95,512
4.052734,-16848.59,-17571.9,512
4.054688,-16856.99,-17582.63,512
4.056641,-16853.66,-17568.57,512
4.058594,-16858.8,-17585.46,512
4.060547,-16866.32,-17591.73,512
4.0625,-16831.98,-17577.49,512
4.064453,-16817.99,-17565.13,512
4.066406,-16827.15,-17582.4,512
4.068359,-16845.56,-17600.35,512
4.070312,-16834.57,-17584.97,512
4.072266,-16828.72,-17578.14,512
4.074219,-16829.67,-17574.76,512
4.076172,-16835.74,-17571.48,512
4.078125,-16859.23,-17586.68,512
4.080078,-16835.23,-17570.09,512
4.082031,-16822.14,-17560.31,512
4.083984,-16834.16,-17574.84,512
4.085938,-16837.21,-17576.72,512
4.087891,-16843.47,-17569.22,512
4.089844,-16837.73,-17561.14,512
4.091797,-16852.4,-17563.33,512
4.09375,-16860.55,-17559.78,512
4.095703,-16864.93,-17557.8,512
4.097656,-16867.64,-17554.3,512
4.099609,-16861.34,-17549.72,512
4.101562,-16850.9,-17541.02,512
4.103516,-16879.93,-17567.19,512
4.105469,-16876.84,-17562.32,512
4.107422,-16882.02,-17560.38,512
4.109375,-16871.1,-17553.54,512
4.111328,-16869.38,-17559.63,512
4.113281,-16855.4,-17547.97,512
4.115234,-16897.96,-17563.93,512
4.117188,-16907.38,-17569.35,512
4.119141,-16877.76,-17559.88,512
4.121094,-16870.04,-17553.37,512
4.123047,-16882.29,-17557.68,512
4.125,-16869.62,-17549.79,512
4.126953,-16872.47,-17552.62,512
4.128906,-16872.12,-17542.22,512
4.130859,-16867.55,-17540.37,512
4.132812,-16864.61,-17538.85,512
4.134766,-16868.81,-17559.59,512
4.136719,-16893.96,-17561.49,512
4.138672,-16862.76,-17545.54,512
4.140625,-16884.18,-17562.62,512
4.142578,-16899,-17569.99,512
4.144531,-16888.47,-17561.93,512
4.146484,-16883.08,-17562.06,512
4.148438,-16893.41,-17565.79,512
4.150391,-16885,-17556.68,512
4.152344,-16886.12,-17566.11,512
4.154297,-16887.5,-17564.99,512
4.15625,-16889.54,-17560.78,512
4.158203,-16872.01,-17548.28,512
4.160156,-16870.79,-17550.31,512
4.162109,-16899.13,-17576.29,512
4.164062,-16891.72,-17571.21,512
4.166016,-16890.12,-17569.95,512
4.167969,-16881.49,-17562.66,512
4.169922,-16874.42,-17557.39,512
4.171875,-16890.08,-17572.43,512
4.173828,-16893.49,-17563.87,512
4.175781,-16883.42,-17558.28,512
4.177734,-16890.6,-17565.06,512
4.179688,-16894.1,-17568.17,512
4.181641,-16887.36,-17565.41,512
4.183594,-16886.18,-17567.61,512
4.185547,-16881.62,-17558.93,512
4.1875,-16885.86,-17551.15,512
4.189453,-16857.03,-17555.88,512
4.191406,-16864.28,-17547.68,512
4.193359,-16891.12,-17581.46,512
4.195312,-16876.16,-17570.58,512
4.197266,-16874.87,-17566.35,512
4.199219,-16891.92,-17582.34,512
4.201172,-16867.14,-17560.71,512
4.203125,-16860.65,-17568.82,512
4.205078,-16860.93,-17576.22,512
4.207031,-16853.05,-17578.51,512
4.208984,-16855.74,-17583.65,512
4.210938,-16841.34,-17575.72,512
4.212891,-16828.27,-17572.76,512
4.214844,-16812.36,-17580.39,512
4.216797,-16781.74,-17577.65,512
4.21875,-16774.71,-17585.34,512
4.220703,-16750.75,-17582.47,512
4.222656,-16741.69,-17601.63,512
4.224609,-16753.89,-17614.11,512
4.226562,-16756.79,-17603.37,512
4.228516,-16783.89,-17596.87,512
4.230469,-16840.89,-17606.64,512
4.232422,-16857.31,-17594.06,512
4.234375,-16872.75,-17576.65,512
4.236328,-16923.08,-17575.86,512
4.238281,-16938.75,-17557.04,512
4.240234,-16962.42,-17545.61,512
4.242188,-16997.7,-17546.87,512
4.244141,-17033.2,-17554.64,512
4.246094,-17042.09,-17547.29,512
4.248047,-17052.07,-17548.52,512
4.25,-17039.88,-17542.76,512
4.251953,-17034.03,-17549.39,512
4.253906,-17019.22,-17542.39,512
4.255859,-17027.23,-17556.44,512
4.257812,-17008.71,-17542.62,512
4.259766,-16987.37,-17546.98,512
4.261719,-16981.51,-17556.72,512
4.263672,-16985.76,-17568.62,512
4.265625,-16951.25,-17542.22,512
4.267578,-16957.11,-17555.63,512
4.269531,-16961.65,-17565.25,512
4.271484,-16945.47,-17550.78,512
4.273438,-16948.3,-17564.21,512
4.275391,-16938.34,-17570.35,512
4.277344,-16919.64,-17558.21,512
4.279297,-16917.88,-17561.95,512
4.28125,-16902.45,-17547.91,512
4.283203,-16900.87,-17562.63,512
4.285156,-16894.67,-17558.7,512
4.287109,-16896.22,-17562.8,512
4.289062,-16885.33,-17555,512
4.291016,-16888.62,-17555.23,512
4.292969,-16896.65,-17558.31,512
4.294922,-16893.29,-17550.11,512
4.296875,-16880.24,-17541.5,512
4.298828,-16888.47,-17555.25,512
4.300781,-16883.11,-17551.39,512
4.302734,-16883.72,-17550.6,512
4.304688,-16886.19,-17558.4,512
4.306641,-16880.79,-17554.53,512
4.308594,-16889.2,-17559.2,512
4.310547,-16895.85,-17566.18,512
4.3125,-16887.79,-17557,512
4.314453,-16876.73,-17550.3,512
4.316406,-16877.84,-17554.32,512
4.318359,-16883.98,-17558.1,512
4.320312,-16884.16,-17569.36,512
4.322266,-16877.32,-17562.2,512
4.324219,-16880.29,-17572.59,512
4.326172,-16877.8,-17563.8,512
4.328125,-16878.61,-17562.75,512
4.330078,-16881.51,-17559.14,512
4.332031,-16871.23,-17558.72,512
4.333984,-16873.39,-17566.99,512
4.335938,-16881.31,-17571.06,512
4.337891,-16893.09,-17586.16,512
4.339844,-16887.04,-17577.85,512
4.341797,-16888.65,-17569.24,512
4.34375,-16892.29,-17565.65,512
4.345703,-16890.21,-17559.44,512
4.347656,-16889.47,-17556.14,512
4.349609,-16890.26,-17570.64,512
4.351562,-16881.18,-17569.49,512
4.353516,-16870.7,-17560.28,512
4.355469,-16868.75,-17558.55,512
4.357422,-16885.43,-17575.37,512
4.359375,-16877.17,-17568.15,512
4.361328,-16874.96,-17561.23,512
4.363281,-16892.78,-17577.85,512
4.365234,-16883.2,-17570.08,512
4.367188,-16875.72,-17562.15,512
4.369141,-16884.8,-17575.86,512
4.371094,-16874.05,-17570.63,512
4.373047,-16873.61,-17556.79,512
4.375,-16879.29,-17561.03,512
4.376953,-16874.9,-17557.51,512
4.378906,-16885.19,-17567.93,512
4.380859,-16871.08,-17565.1,512
4.382812,-16877.9,-17563.95,512
4.384766,-16884.38,-17563.69,512
4.386719,-16879.57,-17559.03,512
4.388672,-16878.8,-17570.13,512
4.390625,-16862.93,-17557.89,512
4.392578,-16860.88,-17558.63,512
4.394531,-16859.56,-17557,512
4.396484,-16847.96,-17543.6,512
4.398438,-16864.02,-17569.35,512
4.400391,-16861.21,-17572.3,512
4.402344,-16840.51,-17557.93,512
4.404297,-16855.35,-17570.57,512
4.40625,-16861.19,-17571.75,512
4.408203,-16836.43,-17554.25,512
4.410156,-16844.48,-17550.09,512
4.412109,-16862.37,-17563.1,512
4.414062,-16845.22,-17546.11,512
4.416016,-16838.96,-17542.97,512
4.417969,-16829.56,-17539.52,512
4.419922,-16830.35,-17541.32,512
4.421875,-16862.68,-17560.92,512
4.423828,-16856.28,-17550.81,512
4.425781,-16850.89,-17551.5,512
4.427734,-16855.82,-17558.66,512
4.429688,-16864.29,-17574.99,512
4.431641,-16851.62,-17561.04,512
4.433594,-16834.55,-17545.37,512
4.435547,-16826.7,-17552.34,512
4.4375,-16833.49,-17559.56,512
4.439453,-16834.77,-17553.98,512
4.441406,-16843.49,-17555.7,512
4.443359,-16840.65,-17551.52,512
4.445312,-16822.72,-17541.35,512
4.447266,-16827.18,-17545.7,512
4.449219,-16829.97,-17549.58,512
4.451172,-16814.56,-17539.5,512
4.453125,-16817.05,-17549.93,512
4.455078,-16812.69,-17556.86,512
4.457031,-16808.42,-17544.44,512
4.458984,-16794.76,-17544.33,512
4.460938,-16792.68,-17547.25,512
4.462891,-16796.65,-17551.47,512
4.464844,-16807.94,-17566.44,512
4.466797,-16806.24,-17566.71,512
4.46875,-16806,-17571.72,512
4.470703,-16797.5,-17566.49,512
4.472656,-16786.32,-17550.24,512
4.474609,-16795.3,-17558.23,512
4.476562,-16796.73,-17562.1,512
4.478516,-16812.76,-17578.38,512
4.480469,-16804.69,-17571.68,512
4.482422,-16801.55,-17580.19,512
4.484375,-16791.75,-17578.78,512
4.486328,-16779.09,-17564.99,512
4.488281,-16797.01,-17579.91,512
4.490234,-16792.4,-17572.07,512
4.492188,-16777.9,-17555.36,512
4.494141,-16787.8,-17574.24,512
4.496094,-16777.01,-17564.74,512
4.498047,-16773.78,-17560.61,512
4.5,-16772.82,-17562.38,512
4.501953,-16773.29,-17563.25,512
4.503906,-16774.06,-17564.68,512
4.505859,-16782.92,-17574.66,512
4.507812,-16776.78,-17564.79,512
4.509766,-16789.4,-17571.7,512
4.511719,-16795.39,-17583.14,512
4.513672,-16766.85,-17556.91,512
4.515625,-16782.55,-17561.21,512
4.517578,-16776.72,-17558.79,512
4.519531,-16780.36,-17566.84,512
4.521484,-16780.51,-17567.29,512
4.523438,-16779.76,-17557.51,512
4.525391,-16804.4,-17568.91,512
4.527344,-16793.41,-17558.27,512
4.529297,-16799.63,-17563.3,512
4.53125,-16800.52,-17551.6,512
4.533203,-16789.64,-17539.88,512
4.535156,-16808.89,-17562.67,512
4.537109,-16815.15,-17559.59,512
4.539062,-16802.51,-17541.27,512
4.541016,-16813.26,-17540.57,512
4.542969,-16816.41,-17537.04,512
4.544922,-16807.18,-17535.27,512
4.546875,-16813.06,-17533.2,512
4.548828,-16817.59,-17538.78,512
4.550781,-16828.27,-17541.25,512
4.552734,-16830.76,-17545.49,512
4.554688,-16833.03,-17539.06,512
4.556641,-16844.2,-17546.68,512
4.558594,-16845.13,-17534.8,512
4.560547,-16866.08,-17550.9,512
4.5625,-16852.59,-17546.34,512
4.564453,-16851.3,-17537.61,512
4.566406,-16850.52,-17552.89,512
4.568359,-16846.62,-17548.47,512
4.570312,-16851.7,-17554.27,512
4.572266,-16858.53,-17564,512
4.574219,-16857.47,-17554.5,512
4.576172,-16863.61,-17557.61,512
4.578125,-16868.23,-17554.14,512
4.580078,-16866.09,-17548.2,512
4.582031,-16867.95,-17552.72,512
4.583984,-16867.32,-17563.34,512
4.585938,-16856.37,-17553.2,512
4.587891,-16861.95,-17562.13,512
4.589844,-16876.77,-17577.2,512
4.591797,-16880.27,-17569.67,512
4.59375,-16884.24,-17570.21,512
4.595703,-16862.62,-17551.02,512
4.597656,-16851.96,-17551.59,512
4.599609,-16871.88,-17567.44,512
4.601562,-16873.75,-17574.49,512
4.603516,-16863.67,-17563.52,512
4.605469,-16866.83,-17560.54,512
4.607422,-16869.38,-17557.57,512
4.609375,-16877.08,-17559.74,512
4.611328,-16872.99,-17551.51,512
4.613281,-16864.85,-17544.51,512
4.615234,-16866.05,-17552.85,512
4.617188,-16877.91,-17561.59,512
4.619141,-16865.88,-17550.64,512
4.621094,-16865.68,-17554.04,512
4.623047,-16876.98,-17560.02,512
4.625,-16867.95,-17554.68,512
4.626953,-16876.52,-17551.73,512
4.628906,-16871.52,-17550.69,512
4.630859,-16868.29,-17556.11,512
4.632812,-16868.36,-17550.31,512
4.634766,-16861.79,-17547.6,512
4.636719,-16858.48,-17544.09,512
4.638672,-16860.76,-17548.82,512
4.640625,-16862.99,-17552.67,512
4.642578,-16874.45,-17557.48,512
4.644531,-16867.55,-17551.03,512
4.646484,-16876.83,-17548.33,512
4.648438,-16883.13,-17568.38,512
4.650391,-16862.6,-17548.66,512
4.652344,-16861.28,-17547.2,512
4.654297,-16881.68,-17558.76,512
4.65625,-16875.54,-17559.5,512
4.658203,-16872.59,-17557.58,512
4.660156,-16867.03,-17548.83,512
4.662109,-16875.29,-17560.28,512
4.664062,-16867.39,-17550.78,512
4.666016,-16866.91,-17550.88,512
4.667969,-16858.54,-17554.83,512
4.669922,-16867.45,-17560.89,512
4.671875,-16877.31,-17562.77,512
4.673828,-16875.21,-17555.6,512
4.675781,-16880.59,-17555.62,512
4.677734,-16864.4,-17536.02,512
4.679688,-16870.77,-17540.87,512
4.681641,-16877.17,-17562.71,512
4.683594,-16867.47,-17560.05,512
4.685547,-16864.64,-17552.21,512
4.6875,-16867.87,-17554.56,512
4.689453,-16867.09,-17553.34,512
4.691406,-16861.98,-17541.88,512
4.693359,-16856.89,-17541.5,512
4.695312,-16857.92,-17540.15,512
4.697266,-16857.94,-17539.48,512
4.699219,-16859.01,-17538.56,512
4.701172,-16858.37,-17536.61,512
4.703125,-16862.56,-17551.84,512
4.705078,-16858.62,-17547.17,512
4.707031,-16864.06,-17545,512
4.708984,-16865.48,-17546.02,512
4.710938,-16870.71,-17547.46,512
4.712891,-16877.38,-17554.62,512
4.714844,-16857.13,-17545.68,512
4.716797,-16852.5,-17537.34,512
4.71875,-16866.01,-17550.75,512
4.720703,-16871.08,-17558.13,512
4.722656,-16871.16,-17550.03,512
4.724609,-16865.37,-17544.12,512
4.726562,-16867.37,-17548.99,512
4.728516,-16881.57,-17559.83,512
4.730469,-16866.46,-17545.53,512
4.732422,-16867.26,-17547.7,512
4.734375,-16855.57,-17537.96,512
4.736328,-16873.38,-17556.38,512
4.738281,-16881.88,-17564.82,512
4.740234,-16867.83,-17550.25,512
4.742188,-16867.45,-17556.3,512
4.744141,-16868.79,-17544.99,512
4.746094,-16863.83,-17543.18,512
4.748047,-16869.01,-17551.56,512
4.75,-16868.19,-17560.44,512
4.751953,-16879.13,-17569.53,512
4.753906,-16869.42,-17553.92,512
4.755859,-16873.13,-17558.31,512
4.757812,-16892.49,-17577.51,512
4.759766,-16887.77,-17582.38,512
4.761719,-16877.21,-17563.68,512
4.763672,-16875.79,-17555.04,512
4.765625,-16888.18,-17575.49,512
4.767578,-16880.37,-17572.11,512
4.769531,-16889.74,-17580.85,512
4.771484,-16880.37,-17569.95,512
4.773438,-16870.58,-17561.83,512
4.775391,-16871.47,-17559.46,512
4.777344,-16888.1,-17572.76,512
4.779297,-16903.06,-17586.16,512
4.78125,-16880.67,-17563.89,512
4.783203,-16861.36,-17549.29,512
4.785156,-16865.78,-17548.94,512
4.787109,-16870.49,-17560.78,512
4.789062,-16868.7,-17567.37,512
4.791016,-16879.87,-17562.9,512
4.792969,-16883.37,-17556.91,512
4.794922,-16899.37,-17572.12,512
4.796875,-16880.88,-17555.24,512
4.798828,-16874.45,-17556.25,512
4.800781,-16865.97,-17555.05,512
4.802734,-16864.14,-17559.1,512
4.804688,-16880.78,-17576.84,512
4.806641,-16869.38,-17565.96,512
4.808594,-16849.15,-17545.22,512
4.810547,-16863.29,-17560.76,512
4.8125,-16851.56,-17547.44,512
4.814453,-16854.78,-17547.13,512
4.816406,-16868.32,-17558.25,512
4.818359,-16863.68,-17556.41,512
4.820312,-16868.64,-17559.46,512
4.822266,-16864.8,-17553.36,512
4.824219,-16869.54,-17553.86,512
4.826172,-16882.88,-17553.98,512
4.828125,-16878.81,-17550.28,512
4.830078,-16882.35,-17555.29,512
4.832031,-16880.89,-17562.87,512
4.833984,-16857.48,-17551.07,512
4.835938,-16861.66,-17556.73,512
4.837891,-16867.72,-17555.04,512
4.839844,-16871.56,-17560.42,512
4.841797,-16867.22,-17561.8,512
4.84375,-16862.67,-17556.04,512
4.845703,-16869.43,-17559.94,512
4.847656,-16863.5,-17557.61,512
4.849609,-16868.84,-17564.31,512
4.851562,-16868.26,-17558.58,512
4.853516,-16878.18,-17568.64,512
4.855469,-16869.57,-17550.11,512
4.857422,-16868.9,-17552.78,512
4.859375,-16876.47,-17564.13,512
4.861328,-16863.21,-17547.38,512
4.863281,-16866.44,-17551.81,512
4.865234,-16860.61,-17556.05,512
4.867188,-16862.4,-17556.32,512
4.869141,-16874.68,-17562.46,512
4.871094,-16875.65,-17571.96,512
4.873047,-16872.95,-17562.64,512
4.875,-16874.32,-17557.7,512
4.876953,-16887.07,-17571.46,512
4.878906,-16885.89,-17569.84,512
4.880859,-16878.18,-17559.73,512
4.882812,-16863.32,-17554.91,512
4.884766,-16858.47,-17555.82,512
4.886719,-16857.5,-17550.6,512
4.888672,-16873.53,-17558.95,512
4.890625,-16875.68,-17560.88,512
4.892578,-16868.19,-17550.06,512
4.894531,-16869.99,-17547.7,512
4.896484,-16869.48,-17544.04,512
4.898438,-16876.36,-17555.64,512
4.900391,-16858.43,-17545.82,512
4.902344,-16859.33,-17553.16,512
4.904297,-16859.61,-17560.71,512
4.90625,-16863.7,-17559.22,512
4.908203,-16879.22,-17562.29,512
4.910156,-16881.12,-17562.51,512
4.912109,-16872.04,-17555.25,512
4.914062,-16873.07,-17553.53,512
4.916016,-16881.39,-17562.51,512
4.917969,-16877.88,-17565.27,512
4.919922,-16888.17,-17573.61,512
4.921875,-16892.52,-17571.29,512
4.923828,-16882.81,-17564.65,512
4.925781,-16886.54,-17562.34,512
4.927734,-16885.79,-17559.62,512
4.929688,-16866.28,-17551.58,512
4.931641,-16869.53,-17553.11,512
4.933594,-16871.79,-17549.32,512
4.935547,-16877.98,-17557.5,512
4.9375,-16875.55,-17556.29,512
4.939453,-16874.24,-17548.89,512
4.941406,-16890.19,-17563.71,512
4.943359,-16884.14,-17545.47,512
4.945312,-16875.81,-17540.69,512
4.947266,-16867.26,-17550.34,512
4.949219,-16872.51,-17557.44,512
4.951172,-16864.04,-17550.39,512
4.953125,-16864.22,-17553.16,512
4.955078,-16864.36,-17549.08,512
4.957031,-16860.82,-17546.19,512
4.958984,-16858.81,-17544.96,512
4.960938,-16865.21,-17548.91,512
4.962891,-16874.26,-17553.59,512
4.964844,-16870.43,-17545.06,512
4.966797,-16863.45,-17546.64,512
4.96875,-16861.57,-17541.83,512
4.970703,-16863.59,-17552.65,512
4.972656,-16859.68,-17552.55,512
4.974609,-16860.24,-17550.88,512
4.976562,-16864.87,-17549.06,512
4.978516,-16863.66,-17548.23,512
4.980469,-16865.96,-17550.49,512
4.982422,-16877.14,-17561.91,512
4.984375,-16870.23,-17555.62,512
4.986328,-16865.71,-17556.39,512
4.988281,-16856.47,-17551.41,512
4.990234,-16870.07,-17549.05,512
4.992188,-16879.18,-17549.7,512
4.994141,-16866.58,-17546.06,512
4.996094,-16865.09,-17544.1,512
4.998047,-16872.02,-17563.48,512
5,-16859.52,-17558.97,512
5.001953,-16865.71,-17557.45,512
5.003906,-16864.77,-17558.71,512
5.005859,-16867.65,-17561.66,512
5.007812,-16863.49,-17560.3,512
5.009766,-16878.58,-17568.19,512
5.011719,-16874.23,-17558.39,512
5.013672,-16871.18,-17559.78,512
5.015625,-16866.84,-17555.52,512
5.017578,-16864.8,-17543.5,512
5.019531,-16870.38,-17549.44,512
5.021484,-16867.8,-17544.77,512
5.023438,-16857.05,-17535.99,512
5.025391,-16860.77,-17545.71,512
5.027344,-16859.81,-17535.74,512
5.029297,-16859.98,-17541.35,512
5.03125,-16860.66,-17552.72,512
5.033203,-16870.02,-17548.29,512
5.035156,-16855.95,-17541.08,512
5.037109,-16854.92,-17545.69,512
5.039062,-16863.24,-17543.06,512
5.041016,-16868.43,-17547.62,512
5.042969,-16866.51,-17541.44,512
5.044922,-16862.68,-17536.08,512
5.046875,-16887.95,-17564.07,512
5.048828,-16872.34,-17552.22,512
5.050781,-16859.47,-17537.82,512
5.052734,-16881.4,-17557.24,512
5.054688,-16871.65,-17549.14,512
5.056641,-16878.97,-17552.48,512
5.058594,-16883.41,-17550.04,512
5.060547,-16885.16,-17546.19,512
5.0625,-16873.59,-17533.68,512
5.064453,-16867.08,-17532.37,512
5.066406,-16871.78,-17549.23,512
5.068359,-16870.14,-17553.33,512
5.070312,-16869.78,-17557.81,512
5.072266,-16855.71,-17540.26,512
5.074219,-16860.09,-17560.04,512
5.076172,-16850.79,-17550.12,512
5.078125,-16867.87,-17566.21,512
5.080078,-16869.58,-17565.76,512
5.082031,-16863.24,-17569.33,512
5.083984,-16856.43,-17568.34,512
5.085938,-16855.49,-17566.76,512
5.087891,-16851.4,-17562.32,512
5.089844,-16877.54,-17584.58,512
5.091797,-16883.49,-17585.2,512
5.09375,-16870.67,-17570.46,512
5.095703,-16863.62,-17559.89,512
5.097656,-16859.55,-17568.24,512
5.099609,-16870.8,-17576.9,512
5.101562,-16880.23,-17590.39,512
5.103516,-16875.79,-17600.06,512
5.105469,-16863.75,-17594.49,512
5.107422,-16851.28,-17584.39,512
5.109375,-16855.17,-17589.21,512
5.111328,-16849.19,-17586.89,512
5.113281,-16868.72,-17604.82,512
5.115234,-16860.06,-17593.83,512
5.117188,-16841.39,-17586.85,512
5.119141,-16847.28,-17592.57,512
5.121094,-16862.19,-17605.43,512
5.123047,-16863.41,-17601.31,512
5.125,-16862.95,-17593.5,512
5.126953,-16853.25,-17578.64,512
5.128906,-16850.59,-17573.95,512
5.130859,-16846.22,-17566.28,512
5.132812,-16830.75,-17569.34,512
5.134766,-16823.5,-17573.74,512
5.136719,-16831.8,-17568.39,512
5.138672,-16832.71,-17573.28,512
5.140625,-16829.44,-17556.68,512
5.142578,-16848.56,-17554.9,512
5.144531,-16862.72,-17561.21,512
5.146484,-16863.76,-17555.96,512
5.148438,-16859.45,-17557.72,512
5.150391,-16858.43,-17559.76,512
5.152344,-16848.97,-17552.84,512
5.154297,-16857.69,-17556.08,512
5.15625,-16877.86,-17574.38,512
5.158203,-16880.2,-17560.75,512
5.160156,-16891.14,-17563.12,512
5.162109,-16893.16,-17571.84,512
5.164062,-16889.55,-17569.83,512
5.166016,-16894.41,-17569.13,512
5.167969,-16881.65,-17557.25,512
5.169922,-16871.11,-17551.81,512
5.171875,-16871.04,-17545.89,512
5.173828,-16894.96,-17558.09,512
5.175781,-16885.6,-17550.71,512
5.177734,-16880.62,-17550.77,512
5.179688,-16877.78,-17539.91,512
5.181641,-16880.76,-17545.16,512
5.183594,-16888.81,-17554.48,512
5.185547,-16876.51,-17538.57,512
5.1875,-16875.78,-17537.95,512
5.189453,-16878.86,-17541.78,512
5.191406,-16871.51,-17529.62,512
5.193359,-16891.71,-17542.91,512
5.195312,-16886.24,-17540.76,512
5.197266,-16877.31,-17532.9,512
5.199219,-16873.9,-17533.46,512
5.201172,-16880.62,-17539.43,512
5.203125,-16879.58,-17535.08,512
5.205078,-16882.71,-17536.9,512
5.207031,-16880.06,-17525.9,512
5.208984,-16883.64,-17537.16,512
5.210938,-16883.66,-17545.67,512
5.212891,-16888.93,-17540.95,512
5.214844,-16879.06,-17535.11,512
5.216797,-16875.37,-17540.46,512
5.21875,-16876.97,-17553.2,512
5.220703,-16871.6,-17547.21,512
5.222656,-16889.27,-17556.84,512
5.224609,-16881.29,-17545.47,512
5.226562,-16882.82,-17546.35,512
5.228516,-16892.24,-17556.44,512
5.230469,-16877.07,-17547.93,512
5.232422,-16865.13,-17535.41,512
5.234375,-16879.07,-17548,512
5.236328,-16876.82,-17545.15,512
5.238281,-16867.82,-17539.07,512
5.240234,-16868.15,-17545.33,512
5.242188,-16869.86,-17546.19,512
5.244141,-16859.73,-17536.05,512
5.246094,-16855.39,-17536.27,512
5.248047,-16852.46,-17536.19,512
5.25,-16853.67,-17542.15,512
5.251953,-16837.49,-17534.67,512
5.253906,-16843.59,-17544.97,512
5.255859,-16836.79,-17542.26,512
5.257812,-16827.21,-17538.08,512
5.259766,-16807.11,-17522.94,512
5.261719,-16802.89,-17533.28,512
5.263672,-16786.21,-17552.1,512
5.265625,-16758.02,-17545.99,512
5.267578,-16730.23,-17534.91,512
5.269531,-16702.4,-17533.42,512
5.271484,-16707.54,-17553.98,512
5.273438,-16729.82,-17599.59,512
5.275391,-16738,-17580.67,512
5.277344,-16788.41,-17563.76,512
5.279297,-16814.4,-17550.04,512
5.28125,-16829.12,-17536.88,512
5.283203,-16862.87,-17532.3,512
5.285156,-16895.33,-17533.53,512
5.287109,-16917.8,-17512.89,512
5.289062,-16950.17,-17507.95,512
5.291016,-16979.3,-17505.42,512
5.292969,-17017.99,-17518.56,512
5.294922,-17015.89,-17506.12,512
5.296875,-17013.37,-17501.36,512
5.298828,-17009.19,-17497.63,512
5.300781,-17000.24,-17505.23,512
5.302734,-16993.28,-17507.58,512
5.304688,-16979.76,-17511.17,512
5.306641,-16963.67,-17514.68,512
5.308594,-16954.82,-17505.92,512
5.310547,-16937.64,-17504.76,512
5.3125,-16930.6,-17507.5,512
5.314453,-16904.46,-17488.51,512
5.316406,-16918.12,-17508.86,512
5.318359,-16916.25,-17508.84,512
5.320312,-16886.31,-17492.27,512
5.322266,-16885.57,-17504.34,512
5.324219,-16885.99,-17507.85,512
5.326172,-16878.97,-17502.62,512
5.328125,-16878.7,-17513.61,512
5.330078,-16870.58,-17524.65,512
5.332031,-16849.44,-17509,512
5.333984,-16846.44,-17511.08,512
5.335938,-16847.13,-17513,512
5.337891,-16842.04,-17503.28,512
5.339844,-16842.26,-17507.06,512
5.341797,-16846.92,-17515.38,512
5.34375,-16836.59,-17503,512
5.345703,-16835.3,-17498.32,512
5.347656,-16844.4,-17515.06,512
5.349609,-16823.27,-17501.83,512
5.351562,-16834.09,-17507.93,512
5.353516,-16838.55,-17515.31,512
5.355469,-16845.18,-17514.67,512
5.357422,-16855.63,-17515.28,512
5.359375,-16845.29,-17503.16,512
5.361328,-16863.57,-17518.89,512
5.363281,-16848.81,-17507.09,512
5.365234,-16842.32,-17505.1,512
5.367188,-16844.76,-17515.07,512
5.369141,-16847.87,-17518.57,512
5.371094,-16833.56,-17506.31,512
5.373047,-16845.56,-17514.88,512
5.375,-16848.04,-17519.05,512
5.376953,-16832.35,-17504,512
5.378906,-16827.11,-17500.82,512
5.380859,-16836.12,-17519.58,512
5.382812,-16826.04,-17514.25,512
5.384766,-16820.83,-17494.77,512
5.386719,-16841.29,-17520.83,512
5.388672,-16840.8,-17522.6,512
5.390625,-16843.59,-17518.93,512
5.392578,-16838.91,-17512.84,512
5.394531,-16854.93,-17529.53,512
5.396484,-16836.13,-17520.71,512
5.398438,-16830.02,-17515.59,512
5.400391,-16841.16,-17525.64,512
5.402344,-16832.29,-17517.74,512
5.404297,-16830.4,-17523.58,512
5.40625,-16834.13,-17534.02,512
5.408203,-16836.59,-17526.01,512
5.410156,-16822.28,-17512.82,512
5.412109,-16823.1,-17508.45,512
5.414062,-16825.69,-17510.98,512
5.416016,-16814.75,-17513.58,512
5.417969,-16835.44,-17525.38,512
5.419922,-16854.97,-17541.37,512
5.421875,-16836.51,-17529.41,512
5.423828,-16819.33,-17509.29,512
5.425781,-16838.91,-17516.54,512
5.427734,-16839.44,-17517.52,512
5.429688,-16827.55,-17516.04,512
5.431641,-16819.72,-17512.74,512
5.433594,-16817.95,-17519.34,512
5.435547,-16821.77,-17523.7,512
5.4375,-16820.25,-17517.37,512
5.439453,-16823.53,-17521.32,512
5.441406,-16825.31,-17518.42,512
5.443359,-16836.32,-17521.01,512
5.445312,-16826.77,-17511.08,512
5.447266,-16834.85,-17523.22,512
5.449219,-16829.84,-17525.41,512
5.451172,-16816.93,-17516.55,512
5.453125,-16826.27,-17524.9,512
5.455078,-16828.63,-17522.22,512
5.457031,-16840.6,-17517.67,512
5.458984,-16838.63,-17516.05,512
5.460938,-16849.38,-17534.35,512
5.462891,-16837.04,-17520.09,512
5.464844,-16830.12,-17526,512
5.466797,-16834.64,-17537.57,512
5.46875,-16816.5,-17532.97,512
5.470703,-16818.82,-17544.32,512
5.472656,-16811.22,-17533.62,512
5.474609,-16812.27,-17530.39,512
5.476562,-16822.44,-17543.61,512
5.478516,-16822.87,-17534.12,512
5.480469,-16829.76,-17540.16,512
5.482422,-16813.59,-17538.91,512
5.484375,-16804.9,-17534.29,512
5.486328,-16808.64,-17537.38,512
5.488281,-16798.41,-17536.3,512
5.490234,-16803.73,-17539.32,512
5.492188,-16800.18,-17534.88,512
5.494141,-16794.17,-17520.25,512
5.496094,-16808.3,-17542.83,512
5.498047,-16793.22,-17541.27,512
5.5,-16791.51,-17530.11,512
5.501953,-16796.31,-17532.55,512
5.503906,-16792.13,-17533.29,512
5.505859,-16800.3,-17545.95,512
5.507812,-16792.64,-17533.85,512
5.509766,-16787.08,-17530.06,512
5.511719,-16788.81,-17534.01,512
5.513672,-16785.24,-17534.01,512
5.515625,-16775.08,-17531.36,512
5.517578,-16775.28,-17538.82,512
5.519531,-16754.67,-17517.94,512
5.521484,-16758.91,-17523.06,512
5.523438,-16764.13,-17530.44,512
5.525391,-16766.77,-17532.25,512
5.527344,-16775.03,-17545.93,512
5.529297,-16780.43,-17548.18,512
5.53125,-16756.47,-17531.02,512
5.533203,-16763.48,-17531.4,512
5.535156,-16761.92,-17534.38,512
5.537109,-16751.74,-17527.59,512
5.539062,-16769.43,-17547.12,512
5.541016,-16755.99,-17538.97,512
5.542969,-16748.83,-17534.4,512
5.544922,-16743.17,-17530.32,512
5.546875,-16761.39,-17551.74,512
5.548828,-16764.91,-17553.94,512
5.550781,-16751.61,-17540.21,512
5.552734,-16760.13,-17545.82,512
5.554688,-16756.46,-17550.17,512
5.556641,-16751,-17550.5,512
5.558594,-16748.25,-17544.31,512
5.560547,-16750.66,-17542.46,512
5.5625,-16753.79,-17536.79,512
5.564453,-16761.27,-17547.2,512
5.566406,-16764.13,-17547.17,512
5.568359,-16755.63,-17536.63,512
5.570312,-16766.35,-17547.09,512
5.572266,-16767.2,-17539.9,512
5.574219,-16772.79,-17546.29,512
5.576172,-16776.34,-17540.31,512
5.578125,-16775.09,-17537.01,512
5.580078,-16765.67,-17521.5,512
5.582031,-16794.21,-17545.35,512
5.583984,-16793.28,-17539.62,512
5.585938,-16796.29,-17533.31,512
5.587891,-16797.47,-17530.65,512
5.589844,-16803.09,-17525.66,512
5.591797,-16812.08,-17532.7,512
5.59375,-16808.24,-17526.86,512
5.595703,-16815.22,-17536.22,512
5.597656,-16821.52,-17538.97,512
5.599609,-16820.27,-17535.2,512
5.601562,-16822.13,-17529.16,512
5.603516,-16823.18,-17530.17,512
5.605469,-16815.67,-17521.67,512
5.607422,-16819.82,-17528.84,512
5.609375,-16817.08,-17517.38,512
5.611328,-16828.71,-17526.77,512
5.613281,-16825.21,-17519.53,512
5.615234,-16835.55,-17530.86,512
5.617188,-16833.47,-17532.98,512
5.619141,-16836.15,-17529.44,512
5.621094,-16832.4,-17527.7,512
5.623047,-16832.89,-17527.03,512
5.625,-16852.83,-17546.48,512
5.626953,-16845.09,-17535.24,512
5.628906,-16851.84,-17532.93,512
5.630859,-16851.81,-17532.88,512
5.632812,-16844.58,-17525.57,512
5.634766,-16828.96,-17519.08,512
5.636719,-16820.67,-17513.07,512
5.638672,-16853.62,-17534.75,512
5.640625,-16858.86,-17522.89,512
5.642578,-16841.32,-17505.24,512
5.644531,-16852.18,-17527.11,512
5.646484,-16865.2,-17537.77,512
5.648438,-16851.21,-17528.67,512
5.650391,-16854.48,-17528.73,512
5.652344,-16862.4,-17537.29,512
5.654297,-16849.76,-17524.93,512
5.65625,-16850.48,-17515.17,512
5.658203,-16851.53,-17510.45,512
5.660156,-16849.49,-17519.83,512
5.662109,-16860.55,-17540.1,512
5.664062,-16856.58,-17532.96,512
5.666016,-16846.54,-17525.82,512
5.667969,-16855.38,-17544.29,512
5.669922,-16839.33,-17530.14,512
5.671875,-16833.7,-17527.93,512
5.673828,-16835.53,-17526.56,512
5.675781,-16848.64,-17536.32,512
5.677734,-16860.4,-17539.09,512
5.679688,-16854.47,-17536.29,512
5.681641,-16856.92,-17536.88,512
5.683594,-16861.23,-17533.03,512
5.685547,-16853.57,-17527.04,512
5.6875,-16860.46,-17533.68,512
5.689453,-16877.53,-17543.04,512
5.691406,-16860.96,-17534.38,512
5.693359,-16873.87,-17554.69,512
5.695312,-16855.04,-17529.75,512
5.697266,-16860.4,-17540.1,512
5.699219,-16860.83,-17549.58,512
5.701172,-16840.54,-17530.21,512
5.703125,-16844.7,-17538.24,512
5.705078,-16859.77,-17543.46,512
5.707031,-16867.65,-17545.2,512
5.708984,-16854.52,-17529.06,512
5.710938,-16872.14,-17543.79,512
5.712891,-16869.23,-17541.96,512
5.714844,-16848.02,-17524.23,512
5.716797,-16855.15,-17539.85,512
5.71875,-16853.52,-17535.71,512
5.720703,-16863.56,-17535.38,512
5.722656,-16858.63,-17537.11,512
5.724609,-16859.12,-17543.09,512
5.726562,-16864.49,-17546.1,512
5.728516,-16854.95,-17532.29,512
5.730469,-16860.99,-17530.39,512
5.732422,-16861.22,-17538.22,512
5.734375,-16851.92,-17534.34,512
5.736328,-16854.7,-17543.67,512
5.738281,-16850.53,-17550.27,512
5.740234,-16862.45,-17553.19,512
5.742188,-16857.28,-17542.35,512
5.744141,-16853.99,-17539.74,512
5.746094,-16845.78,-17539.54,512
5.748047,-16844.3,-17537.86,512
5.75,-16838.4,-17533.79,512
5.751953,-16849.34,-17541,512
5.753906,-16856.38,-17547.23,512
5.755859,-16852.46,-17542.38,512
5.757812,-16861.43,-17536.49,512
5.759766,-16876.22,-17554.42,512
5.761719,-16864.15,-17544.93,512
5.763672,-16857.06,-17533.87,512
5.765625,-16863.25,-17543.64,512
5.767578,-16864.25,-17550.91,512
5.769531,-16851.52,-17540.76,512
5.771484,-16849.92,-17533.72,512
5.773438,-16853.05,-17534.36,512
5.775391,-16852.35,-17527.73,512
5.777344,-16867.2,-17536.5,512
5.779297,-16862.64,-17540.02,512
5.78125,-16860.77,-17546.94,512
5.783203,-16856.46,-17537.37,512
5.785156,-16839.67,-17520.37,512
5.787109,-16844.4,-17525.54,512
5.789062,-16851.01,-17533.96,512
5.791016,-16842.91,-17528.45,512
5.792969,-16848.77,-17529.78,512
5.794922,-16845.81,-17516.95,512
5.796875,-16850.65,-17524.66,512
5.798828,-16856.92,-17524.71,512
5.800781,-16840.67,-17515.02,512
5.802734,-16846.06,-17524.54,512
5.804688,-16859.4,-17538.08,512
5.806641,-16856.92,-17548.94,512
5.808594,-16853.98,-17533.45,512
5.810547,-16860.52,-17530.68,512
5.8125,-16868.28,-17532.45,512
5.814453,-16852.35,-17515.26,512
5.816406,-16850.43,-17530.55,512
5.818359,-16854.47,-17540.8,512
5.820312,-16853.25,-17534.51,512
5.822266,-16850.48,-17544,512
5.824219,-16854.57,-17536.12,512
5.826172,-16852.82,-17535.84,512
5.828125,-16844.39,-17536.85,512
5.830078,-16855.45,-17534.65,512
5.832031,-16863.88,-17545.13,512
5.833984,-16864.78,-17538.98,512
5.835938,-16867.47,-17549.8,512
5.837891,-16853.63,-17544.95,512
5.839844,-16848.24,-17534.68,512
5.841797,-16849.73,-17536.85,512
5.84375,-16845.68,-17527.06,512
5.845703,-16849.81,-17535.89,512
5.847656,-16858.01,-17541.4,512
5.849609,-16837.52,-17520.12,512
5.851562,-16844.9,-17525.68,512
5.853516,-16840.99,-17526.6,512
5.855469,-16841.15,-17523.67,512
5.857422,-16845.16,-17518.21,512
5.859375,-16852.55,-17527.94,512
5.861328,-16853.34,-17528.13,512
5.863281,-16858.32,-17532.46,512
5.865234,-16866.78,-17541.33,512
5.867188,-16851.63,-17528.27,512
5.869141,-16851.13,-17532.06,512
5.871094,-16834.03,-17514.85,512
5.873047,-16848.43,-17530.08,512
5.875,-16859.04,-17537.72,512
5.876953,-16866.7,-17529.26,512
5.878906,-16870.96,-17534.77,512
5.880859,-16865.2,-17542.66,512
5.882812,-16868.18,-17540.16,512
5.884766,-16849.88,-17532.45,512
5.886719,-16848.29,-17540.67,512
5.888672,-16856.47,-17541.57,512
5.890625,-16871.43,-17547.81,512
5.892578,-16878.69,-17553.35,512
5.894531,-16863.69,-17534.68,512
5.896484,-16874.43,-17546.73,512
5.898438,-16863.26,-17542.47,512
5.900391,-16854.4,-17532.75,512
5.902344,-16866.77,-17543.37,512
5.904297,-16844.43,-17534.35,512
5.90625,-16854.2,-17540.82,512
5.908203,-16877.71,-17551.83,512
5.910156,-16861.77,-17535.25,512
5.912109,-16877.66,-17538.27,512
5.914062,-16867.35,-17527.93,512
5.916016,-16853.19,-17530.16,512
5.917969,-16865.37,-17552.73,512
5.919922,-16845.54,-17536.61,512
5.921875,-16846.11,-17536.74,512
5.923828,-16861.38,-17544.53,512
5.925781,-16867.97,-17548.76,512
5.927734,-16863.92,-17539.23,512
5.929688,-16870.35,-17540.24,512
5.931641,-16865.92,-17538.42,512
5.933594,-16870.99,-17547.44,512
5.935547,-16866.63,-17546.17,512
5.9375,-16859.26,-17534.65,512
5.939453,-16848.13,-17527.98,512
5.941406,-16860.65,-17535.68,512
5.943359,-16867.53,-17541.96,512
5.945312,-16850.44,-17528.31,512
5.947266,-16864.41,-17539.17,512
5.949219,-16874.25,-17540.66,512
5.951172,-16854.08,-17534.25,512
5.953125,-16861.05,-17544.53,512
5.955078,-16847.2,-17535.46,512
5.957031,-16842.61,-17533.52,512
5.958984,-16870.22,-17538.45,512
5.960938,-16862.99,-17531.94,512
5.962891,-16861.22,-17537.55,512
5.964844,-16864.7,-17537.11,512
5.966797,-16857.05,-17530.3,512
5.96875,-16854.12,-17532.62,512
5.970703,-16856.38,-17533.08,512
5.972656,-16852.52,-17529.14,512
5.974609,-16862.31,-17539.07,512
5.976562,-16860.76,-17535.83,512
5.978516,-16856.07,-17528.48,512
5.980469,-16851.97,-17528.84,512
5.982422,-16847.91,-17519.91,512
5.984375,-16855.88,-17524.3,512
5.986328,-16869.96,-17536.99,512
5.988281,-16863.04,-17527.86,512
5.990234,-16864.64,-17529.1,512
5.992188,-16859.37,-17525.44,512
5.994141,-16851.02,-17528.24,512
5.996094,-16847.09,-17521.8,512
5.998047,-16853.97,-17523.38,512
6,-16850.25,-17525.02,512
6.001953,-16837.27,-17515.01,512
6.003906,-16843.51,-17525.67,512
6.005859,-16838.44,-17531.34,512
6.007812,-16844.97,-17534.84,512
6.009766,-16858.5,-17530.23,512
6.011719,-16857.79,-17525.29,512
6.013672,-16850.54,-17528.95,512
6.015625,-16862.35,-17535.86,512
6.017578,-16856.99,-17525.86,512
6.019531,-16862.61,-17526.11,512
6.021484,-16856.08,-17526.55,512
6.023438,-16856.62,-17527.25,512
6.025391,-16853.28,-17531.54,512
6.027344,-16853.33,-17532.94,512
6.029297,-16861.42,-17535.94,512
6.03125,-16853.8,-17531,512
6.033203,-16855.96,-17538.8,512
6.035156,-16846.68,-17528.31,512
6.037109,-16848.99,-17527.79,512
6.039062,-16857.51,-17537.36,512
6.041016,-16837.57,-17524.47,512
6.042969,-16855.77,-17525.08,512
6.044922,-16856.91,-17528.19,512
6.046875,-16863.17,-17529.78,512
6.048828,-16848.79,-17518.06,512
6.050781,-16851.99,-17525.39,512
6.052734,-16851.78,-17532.12,512
6.054688,-16847.46,-17532.26,512
6.056641,-16866.23,-17544.58,512
6.058594,-16844.05,-17518.71,512
6.060547,-16852.09,-17523.25,512
6.0625,-16869.39,-17535.5,512
6.064453,-16848.77,-17512.21,512
6.066406,-16856.99,-17518.42,512
6.068359,-16849.84,-17515.49,512
6.070312,-16858.6,-17525.88,512
6.072266,-16853.09,-17526.47,512
6.074219,-16858.95,-17525.65,512
6.076172,-16862.92,-17527.66,512
6.078125,-16855.37,-17512.03,512
6.080078,-16848.45,-17501.85,512
6.082031,-16855.2,-17512.35,512
6.083984,-16850.21,-17520.02,512
6.085938,-16858.5,-17524.22,512
6.087891,-16843.6,-17516.6,512
6.089844,-16850.46,-17518.58,512
6.091797,-16843.98,-17512.34,512
6.09375,-16850.95,-17512.94,512
6.095703,-16865.24,-17523.02,512
6.097656,-16846.58,-17505.2,512
6.099609,-16841.7,-17520.67,512
6.101562,-16835.25,-17521.08,512
6.103516,-16836.68,-17519.4,512
6.105469,-16843.2,-17529.47,512
6.107422,-16848.02,-17526.05,512
6.109375,-16859.22,-17527.77,512
6.111328,-16838.54,-17510.79,512
6.113281,-16837.83,-17513.89,512
6.115234,-16832.28,-17507,512
6.117188,-16841.52,-17513.65,512
6.119141,-16846.28,-17515.58,512
6.121094,-16844.62,-17511.15,512
6.123047,-16841.56,-17513.25,512
6.125,-16841.64,-17510.42,512
6.126953,-16829.29,-17502.62,512
6.128906,-16823.35,-17496.92,512
6.130859,-16824.67,-17504.56,512
6.132812,-16834.2,-17503.2,512
6.134766,-16843.26,-17502.9,512
6.136719,-16826.62,-17498.19,512
6.138672,-16821.89,-17492.71,512
6.140625,-16827.69,-17502.12,512
6.142578,-16845.46,-17525.39,512
6.144531,-16831.62,-17511.96,512
6.146484,-16832.02,-17514.39,512
6.148438,-16831.54,-17508.29,512
6.150391,-16831.83,-17519.07,512
6.152344,-16837.83,-17527.73,512
6.154297,-16819.83,-17512.74,512
6.15625,-16829.73,-17517.44,512
6.158203,-16833.59,-17520.76,512
6.160156,-16834.6,-17512.74,512
6.162109,-16838.09,-17523.09,512
6.164062,-16828.63,-17518.08,512
6.166016,-16835.63,-17521.38,512
6.167969,-16832.1,-17517.89,512
6.169922,-16839.72,-17523.51,512
6.171875,-16844.25,-17532.87,512
6.173828,-16836.19,-17519.06,512
6.175781,-16847.72,-17542.08,512
6.177734,-16842.61,-17547.5,512
6.179688,-16826.39,-17532.18,512
6.181641,-16812.44,-17537.51,512
6.183594,-16794.17,-17521.33,512
6.185547,-16803.8,-17530.23,512
6.1875,-16810.8,-17547.69,512
6.189453,-16830.56,-17534.13,512
6.191406,-16812.81,-17533.88,512
6.193359,-16797.96,-17536.09,512
6.195312,-16816.33,-17540.1,512
6.197266,-16806.14,-17524.74,512
6.199219,-16815.1,-17528.25,512
6.201172,-16818.33,-17530.43,512
6.203125,-16807.74,-17521.74,512
6.205078,-16812.66,-17516.39,512
6.207031,-16834.88,-17518.22,512
6.208984,-16820.57,-17510.51,512
6.210938,-16807.43,-17494.46,512
6.212891,-16830.61,-17497.95,512
6.214844,-16843.08,-17512.01,512
6.216797,-16851.31,-17531.61,512
6.21875,-16845.76,-17510.31,512
6.220703,-16855.91,-17511.67,512
6.222656,-16850.7,-17522.55,512
6.224609,-16837.86,-17495.11,512
6.226562,-16849.99,-17497.79,512
6.228516,-16872.51,-17515.88,512
6.230469,-16838.46,-17500.91,512
6.232422,-16837.81,-17504.31,512
6.234375,-16837.04,-17501.76,512
6.236328,-16833.06,-17501.73,512
6.238281,-16832.88,-17488.16,512
6.240234,-16845.67,-17494.33,512
6.242188,-16842.99,-17494.29,512
6.244141,-16858.6,-17505.47,512
6.246094,-16842.24,-17497.42,512
6.248047,-16838.07,-17494.44,512
6.25,-16844.79,-17508.84,512
6.251953,-16834.73,-17499.59,512
6.253906,-16834.16,-17498.37,512
6.255859,-16846.3,-17503.77,512
6.257812,-16837.55,-17499.03,512
6.259766,-16866.91,-17504.52,512
6.261719,-16895.11,-17494.4,512
6.263672,-16862.68,-17508.85,512
6.265625,-16852.25,-17509.03,512
6.267578,-16851.58,-17509.61,512
6.269531,-16853.17,-17503.13,512
6.271484,-16846.5,-17499.43,512
6.273438,-16872.55,-17516.24,512
6.275391,-16872.81,-17510.19,512
6.277344,-16856.37,-17500.08,512
6.279297,-16874.47,-17500.29,512
6.28125,-16861.26,-17494.31,512
6.283203,-16825.08,-17490.59,512
6.285156,-16868.18,-17511.37,512
6.287109,-16843.94,-17509.11,512
6.289062,-16813.59,-17500.24,512
6.291016,-16835.15,-17490.08,512
6.292969,-16821.33,-17485.03,512
6.294922,-16837.07,-17490.57,512
6.296875,-16839.33,-17485.39,512
6.298828,-16823.75,-17492.61,512
6.300781,-16831.17,-17482.1,512
6.302734,-16836.56,-17502.04,512
6.304688,-16831.05,-17500.87,512
6.306641,-16817.8,-17484.67,512
6.308594,-16839.25,-17492.32,512
6.310547,-16831.77,-17486.66,512
6.3125,-16837.79,-17490.25,512
6.314453,-16822.57,-17476.93,512
6.316406,-16834.71,-17498.89,512
6.318359,-16834.59,-17500.9,512
6.320312,-16826.71,-17498.53,512
6.322266,-16814.26,-17507.44,512
6.324219,-16819.96,-17505.11,512
6.326172,-16794.08,-17499.07,512
6.328125,-16767.31,-17486.68,512
6.330078,-16771.78,-17497.93,512
6.332031,-16748.15,-17493.05,512
6.333984,-16727.71,-17497.35,512
6.335938,-16708.84,-17496.47,512
6.337891,-16695.51,-17517.17,512
6.339844,-16675.23,-17518.19,512
6.341797,-16681.7,-17527.97,512
6.34375,-16724.72,-17537.2,512
6.345703,-16768.75,-17516.83,512
6.347656,-16797.37,-17513.66,512
6.349609,-16810.52,-17489.43,512
6.351562,-16848.77,-17495.2,512
6.353516,-16867.58,-17481.38,512
6.355469,-16916.11,-17479.84,512
6.357422,-16941.8,-17478.97,512
6.359375,-16947.96,-17456.68,512
6.361328,-16965.88,-17445.99,512
6.363281,-16979.24,-17451.72,512
6.365234,-16981.24,-17463.82,512
6.367188,-16967.3,-17465.48,512
6.369141,-16956.22,-17470.71,512
6.371094,-16957.93,-17471.65,512
6.373047,-16945.02,-17477.45,512
6.375,-16926.8,-17469.13,512
6.376953,-16918.02,-17466.87,512
6.378906,-16919.58,-17475.46,512
6.380859,-16892.58,-17455.72,512
6.382812,-16884.48,-17447.83,512
6.384766,-16894.84,-17456.33,512
6.386719,-16884.91,-17466.71,512
6.388672,-16878.93,-17479.04,512
6.390625,-16882.3,-17477.64,512
6.392578,-16866.16,-17480.13,512
6.394531,-16849.45,-17481.68,512
6.396484,-16827.3,-17457,512
6.398438,-16841.56,-17484.33,512
6.400391,-16851.27,-17492.73,512
6.402344,-16833.29,-17478.28,512
6.404297,-16832.93,-17495.17,512
6.40625,-16832.73,-17487.44,512
6.408203,-16832.32,-17482.12,512
6.410156,-16822.76,-17470.81,512
6.412109,-16836.12,-17489.52,512
6.414062,-16820.8,-17470.57,512
6.416016,-16822.81,-17478.76,512
6.417969,-16842.16,-17484.71,512
6.419922,-16840.87,-17492.45,512
6.421875,-16821.2,-17482.49,512
6.423828,-16834.54,-17493.14,512
6.425781,-16827.21,-17488.46,512
6.427734,-16823.39,-17484.56,512
6.429688,-16819.36,-17484.55,512
6.431641,-16816.14,-17480.58,512
6.433594,-16819.04,-17485.67,512
6.435547,-16820.09,-17486.94,512
6.4375,-16820.18,-17496.28,512
6.439453,-16818.18,-17496.06,512
6.441406,-16826.06,-17502.21,512
6.443359,-16822.91,-17494.64,512
6.445312,-16827.02,-17488.87,512
6.447266,-16843.99,-17498.09,512
6.449219,-16832.34,-17492.64,512
6.451172,-16828.18,-17495.82,512
6.453125,-16818.61,-17495.42,512
6.455078,-16799.53,-17487.92,512
6.457031,-16818.13,-17494.95,512
6.458984,-16828,-17494.75,512
6.460938,-16840.09,-17509.28,512
6.462891,-16843.76,-17510.36,512
6.464844,-16805.71,-17481.01,512
6.466797,-16817,-17499.63,512
6.46875,-16802.15,-17494.78,512
6.470703,-16797.46,-17481.04,512
6.472656,-16814.9,-17492.55,512
6.474609,-16818.59,-17490.68,512
6.476562,-16817.41,-17492.94,512
6.478516,-16821.18,-17491.46,512
6.480469,-16820.4,-17474.41,512
6.482422,-16809.18,-17474.76,512
6.484375,-16812.4,-17482.46,512
6.486328,-16816.46,-17486.99,512
6.488281,-16810.25,-17493.2,512
6.490234,-16815.79,-17496.45,512
6.492188,-16814.6,-17488.68,512
6.494141,-16822.67,-17486.33,512
6.496094,-16822.53,-17486.38,512
6.498047,-16828.52,-17498.49,512
6.5,-16830.71,-17499,512
6.501953,-16820.51,-17493.6,512
6.503906,-16808.29,-17491.62,512
6.505859,-16814.31,-17496.7,512
6.507812,-16810.98,-17480.69,512
6.509766,-16810.39,-17476.24,512
6.511719,-16798.91,-17484.8,512
6.513672,-16822.39,-17490.51,512
6.515625,-16810.54,-17477.86,512
6.517578,-16811.61,-17478.01,512
6.519531,-16814.04,-17487.14,512
6.521484,-16800.98,-17491.7,512
6.523438,-16818.3,-17501.99,512
6.525391,-16795.02,-17479.73,512
6.527344,-16801.29,-17486.08,512
6.529297,-16813.25,-17499.28,512
6.53125,-16805.52,-17487.32,512
6.533203,-16820.42,-17500.4,512
6.535156,-16811.23,-17496.71,512
6.537109,-16790.99,-17486.02,512
6.539062,-16793.41,-17492.11,512
6.541016,-16811.53,-17502.37,512
6.542969,-16800.13,-17494.23,512
6.544922,-16808.36,-17495.05,512
6.546875,-16803.7,-17495.74,512
6.548828,-16792.35,-17489.98,512
6.550781,-16800.88,-17496.58,512
6.552734,-16783.41,-17494.18,512
6.554688,-16781.83,-17493.81,512
6.556641,-16800.67,-17510.96,512
6.558594,-16784.3,-17499.18,512
6.560547,-16785.71,-17502,512
6.5625,-16799.3,-17505.98,512
6.564453,-16808.33,-17497.81,512
6.566406,-16795.52,-17498.31,512
6.568359,-16805.77,-17514.49,512
6.570312,-16805.73,-17510.96,512
6.572266,-16783.51,-17504.99,512
6.574219,-16798.55,-17513.84,512
6.576172,-16794.29,-17504,512
6.578125,-16788.37,-17505.65,512
6.580078,-16785.54,-17512.78,512
6.582031,-16790.7,-17507.93,512
6.583984,-16796.74,-17510.48,512
6.585938,-16784.91,-17501.24,512
6.587891,-16787.49,-17516.02,512
6.589844,-16777.77,-17511.45,512
6.591797,-16783.37,-17510.07,512
6.59375,-16776.61,-17511.27,512
6.595703,-16772.66,-17509.95,512
6.597656,-16763.23,-17500.24,512
6.599609,-16752.76,-17497.7,512
6.601562,-16760.84,-17511.47,512
6.603516,-16760.17,-17514.91,512
6.605469,-16758.21,-17516.59,512
6.607422,-16759.22,-17524.04,512
6.609375,-16763.82,-17531.81,512
6.611328,-16746.04,-17510.52,512
6.613281,-16755.86,-17516.03,512
6.615234,-16755.45,-17515.33,512
6.617188,-16747.18,-17511.84,512
6.619141,-16744.58,-17518.1,512
6.621094,-16751.8,-17520.29,512
6.623047,-16728.85,-17502.79,512
6.625,-16744.11,-17518.71,512
6.626953,-16754.62,-17520.97,512
6.628906,-16752.68,-17520.94,512
6.630859,-16747.94,-17510.39,512
6.632812,-16745.69,-17501.88,512
6.634766,-16761.98,-17514.73,512
6.636719,-16756.34,-17528.76,512
6.638672,-16742.59,-17513.78,512
6.640625,-16757.26,-17514.56,512
6.642578,-16764.99,-17510.36,512
6.644531,-16759.58,-17501.58,512
6.646484,-16764.57,-17498.3,512
6.648438,-16758.3,-17495.68,512
6.650391,-16754.93,-17487.83,512
6.652344,-16770.61,-17491.73,512
6.654297,-16779.19,-17496.66,512
6.65625,-16763.52,-17491.47,512
6.658203,-16782.44,-17494.23,512
6.660156,-16782.42,-17493.31,512
6.662109,-16796.99,-17497.88,512
6.664062,-16793.21,-17489.01,512
6.666016,-16802.36,-17493.12,512
6.667969,-16815.09,-17508.11,512
6.669922,-16802.26,-17491.53,512
6.671875,-16810.45,-17492.34,512
6.673828,-16822.71,-17503.39,512
6.675781,-16828.36,-17508.5,512
6.677734,-16824.63,-17494.28,512
6.679688,-16832.16,-17496.39,512
6.681641,-16830.04,-17492.58,512
6.683594,-16828.3,-17497.07,512
6.685547,-16830.85,-17497.63,512
6.6875,-16838.78,-17503.42,512
6.689453,-16841.16,-17504.88,512
6.691406,-16821.18,-17488.81,512
6.693359,-16839.66,-17499.71,512
6.695312,-16857.26,-17512.24,512
6.697266,-16835.95,-17496.55,512
6.699219,-16834.92,-17494.91,512
6.701172,-16844.32,-17499.66,512
6.703125,-16840.76,-17501.18,512
6.705078,-16842.26,-17495.31,512
6.707031,-16837.31,-17494.45,512
6.708984,-16836.16,-17489.98,512
6.710938,-16843.42,-17485.66,512
6.712891,-16852.39,-17488.58,512
6.714844,-16844.08,-17488.03,512
6.716797,-16838.35,-17495.84,512
6.71875,-16822.28,-17481.97,512
6.720703,-16839.16,-17486.48,512
6.722656,-16849,-17495.84,512
6.724609,-16850.54,-17497.34,512
6.726562,-16837.59,-17487.56,512
6.728516,-16866.56,-17519.49,512
6.730469,-16854.94,-17504.82,512
6.732422,-16841.19,-17486.99,512
6.734375,-16852.51,-17500.72,512
6.736328,-16851.33,-17505.18,512
6.738281,-16853.58,-17498.98,512
6.740234,-16848.2,-17488.54,512
6.742188,-16843.92,-17488.66,512
6.744141,-16853.18,-17484,512
6.746094,-16853.74,-17492.71,512
6.748047,-16851.14,-17489.86,512
6.75,-16841.67,-17481.84,512
6.751953,-16845.16,-17489.31,512
6.753906,-16846.04,-17490.33,512
6.755859,-16844.91,-17483.44,512
6.757812,-16862.03,-17507.46,512
6.759766,-16860.05,-17501.38,512
6.761719,-16861.77,-17499.95,512
6.763672,-16869.98,-17498.71,512
6.765625,-16871.52,-17503.73,512
6.767578,-16855.89,-17499.01,512
6.769531,-16852.75,-17495.43,512
6.771484,-16864.86,-17499.89,512
6.773438,-16840.8,-17500.54,512
6.775391,-16850.77,-17495.58,512
6.777344,-16853.98,-17487.5,512
6.779297,-16865.08,-17500.17,512
6.78125,-16855.84,-17499.7,512
6.783203,-16877.22,-17513.81,512
6.785156,-16860.5,-17497.2,512
6.787109,-16851.85,-17494.53,512
6.789062,-16866.21,-17511.07,512
6.791016,-16866.75,-17519.41,512
6.792969,-16866.49,-17524.38,512
6.794922,-16856.44,-17522.17,512
6.796875,-16861.17,-17519.82,512
6.798828,-16876.02,-17524.35,512
6.800781,-16848.39,-17503.5,512
6.802734,-16866.35,-17513.21,512
6.804688,-16871.97,-17521.17,512
6.806641,-16861.12,-17515.81,512
6.808594,-16867.7,-17517.41,512
6.810547,-16856.36,-17503.22,512
6.8125,-16863.97,-17501.81,512
6.814453,-16869.84,-17508.84,512
6.816406,-16857.18,-17510.66,512
6.818359,-16884.33,-17530.09,512
6.820312,-16889.37,-17530.27,512
6.822266,-16883.93,-17531.86,512
6.824219,-16894.38,-17532.42,512
6.826172,-16896.36,-17537.15,512
6.828125,-16886.69,-17537,512
6.830078,-16885.78,-17524.93,512
6.832031,-16888.34,-17530.14,512
6.833984,-16881.56,-17536.47,512
6.835938,-16893.09,-17542.58,512
6.837891,-16886.1,-17539.51,512
6.839844,-16905.69,-17555.07,512
6.841797,-16886.31,-17536.88,512
6.84375,-16893.59,-17541.98,512
6.845703,-16904.23,-17546.64,512
6.847656,-16883.56,-17528.2,512
6.849609,-16886.21,-17546.86,512
6.851562,-16878.18,-17542.74,512
6.853516,-16882.11,-17542,512
6.855469,-16902.08,-17554.43,512
6.857422,-16903.9,-17552.78,512
6.859375,-16885.2,-17529.8,512
6.861328,-16874.68,-17523.59,512
6.863281,-16881.93,-17540.76,512
6.865234,-16892.05,-17545.91,512
6.867188,-16887.46,-17532.83,512
6.869141,-16876.48,-17533.08,512
6.871094,-16874.83,-17534.29,512
6.873047,-16886.97,-17531.77,512
6.875,-16892.73,-17535.63,512
6.876953,-16895.52,-17539.83,512
6.878906,-16889.28,-17537.82,512
6.880859,-16894.41,-17544.56,512
6.882812,-16890.02,-17539.45,512
6.884766,-16885.7,-17548.24,512
6.886719,-16889.44,-17550.92,512
6.888672,-16880.62,-17548.38,512
6.890625,-16882.22,-17542.12,512
6.892578,-16900.71,-17553.25,512
6.894531,-16874.58,-17526.73,512
6.896484,-16901.63,-17539.04,512
6.898438,-16897.32,-17545.01,512
6.900391,-16872.48,-17534.35,512
6.902344,-16885.57,-17540.11,512
6.904297,-16881.29,-17537.48,512
6.90625,-16878.04,-17543.3,512
6.908203,-16885.63,-17548.82,512
6.910156,-16888.4,-17549.29,512
6.912109,-16875.71,-17532.97,512
6.914062,-16884.2,-17539.6,512
6.916016,-16890.65,-17554.15,512
6.917969,-16877.78,-17539.91,512
6.919922,-16868.85,-17534.93,512
6.921875,-16871.45,-17534.46,512
6.923828,-16887.88,-17545.8,512
6.925781,-16896.61,-17547.25,512
6.927734,-16890.51,-17544.41,512
6.929688,-16902.19,-17551.62,512
6.931641,-16898.18,-17551.18,512
6.933594,-16877.62,-17545.99,512
6.935547,-16894.92,-17552.5,512
6.9375,-16896.03,-17550.46,512
6.939453,-16877.16,-17535.84,512
6.941406,-16882.12,-17554.94,512
6.943359,-16905.65,-17561.41,512
6.945312,-16894.56,-17545.88,512
6.947266,-16907.63,-17556.33,512
6.949219,-16899.76,-17539.21,512
6.951172,-16878.75,-17537.71,512
6.953125,-16885.2,-17548.27,512
6.955078,-16872.26,-17540.31,512
6.957031,-16877.9,-17539.93,512
6.958984,-16876.54,-17534.53,512
6.960938,-16892.07,-17546.79,512
6.962891,-16884.15,-17542.95,512
6.964844,-16893.15,-17548.4,512
6.966797,-16891.23,-17542.95,512
6.96875,-16883.29,-17541.16,512
6.970703,-16883.84,-17538.9,512
6.972656,-16892.5,-17545.35,512
6.974609,-16895.75,-17553.65,512
6.976562,-16898.03,-17551.99,512
6.978516,-16894.89,-17540.04,512
6.980469,-16909.56,-17554.71,512
6.982422,-16889.53,-17546.46,512
6.984375,-16878.76,-17534.66,512
6.986328,-16882.96,-17538.4,512
6.988281,-16893.21,-17548.75,512
6.990234,-16886.29,-17537.17,512
6.992188,-16875.51,-17524.62,512
6.994141,-16882.56,-17536.56,512
6.996094,-16889.38,-17534.28,512
6.998047,-16887.29,-17526.8,512
7,-16885.29,-17533.78,512
7.001953,-16868.57,-17527.99,512
7.003906,-16876.95,-17542.05,512
7.005859,-16880.49,-17535.18,512
7.007812,-16879.6,-17525.7,512
7.009766,-16892.74,-17536.32,512
7.011719,-16889.13,-17528.62,512
7.013672,-16898.55,-17548.76,512
7.015625,-16887.46,-17538.76,512
7.017578,-16885.7,-17536.02,512
7.019531,-16881.05,-17532.21,512
7.021484,-16873.35,-17531.75,512
7.023438,-16862.94,-17520.92,512
7.025391,-16879.93,-17525.78,512
7.027344,-16890.42,-17527.46,512
7.029297,-16892.24,-17522.91,512
7.03125,-16887.97,-17532.12,512
7.033203,-16875.3,-17520.83,512
7.035156,-16868.94,-17515.46,512
7.037109,-16874.19,-17524.44,512
7.039062,-16876.79,-17524.96,512
7.041016,-16874.65,-17520.51,512
7.042969,-16880.29,-17521.55,512
7.044922,-16867.23,-17506.29,512
7.046875,-16889.51,-17531.7,512
7.048828,-16868.98,-17521.78,512
7.050781,-16871.17,-17533.65,512
7.052734,-16853.24,-17519.85,512
7.054688,-16878.25,-17535.84,512
7.056641,-16867.85,-17524.74,512
7.058594,-16862.33,-17518.14,512
7.060547,-16875.44,-17519.73,512
7.0625,-16882.2,-17517.65,512
7.064453,-16880.21,-17512.7,512
7.066406,-16869.61,-17504.55,512
7.068359,-16875.88,-17511.21,512
7.070312,-16875.72,-17518.68,512
7.072266,-16866.54,-17529.25,512
7.074219,-16877.96,-17531.41,512
7.076172,-16868.39,-17512.22,512
7.078125,-16879.26,-17525.18,512
7.080078,-16882.52,-17523.06,512
7.082031,-16874.64,-17518.93,512
7.083984,-16872.58,-17529.19,512
7.085938,-16865.59,-17519.85,512
7.087891,-16866,-17514.42,512
7.089844,-16865.78,-17510.75,512
7.091797,-16878.76,-17523.26,512
7.09375,-16871.23,-17518.19,512
7.095703,-16863.9,-17513.43,512
7.097656,-16871.41,-17515.24,512
7.099609,-16862.98,-17516.04,512
7.101562,-16870.3,-17521.46,512
7.103516,-16864.59,-17517.98,512
7.105469,-16867.69,-17525.21,512
7.107422,-16865.52,-17523.84,512
7.109375,-16870.15,-17530.44,512
7.111328,-16860.17,-17511.96,512
7.113281,-16864.67,-17510.87,512
7.115234,-16866.94,-17519.54,512
7.117188,-16869.19,-17510.59,512
7.119141,-16878.31,-17526.03,512
7.121094,-16871.73,-17528.34,512
7.123047,-16869.05,-17519.97,512
7.125,-16875.03,-17523.74,512
7.126953,-16876.9,-17525.96,512
7.128906,-16878.87,-17524.33,512
7.130859,-16861.81,-17510.46,512
7.132812,-16859.04,-17507.44,512
7.134766,-16871.12,-17515.98,512
7.136719,-16879.91,-17527.82,512
7.138672,-16873.75,-17516,512
7.140625,-16871.5,-17517.91,512
7.142578,-16870.98,-17515.03,512
7.144531,-16879.89,-17527.65,512
7.146484,-16862.4,-17525.9,512
7.148438,-16849.01,-17527.58,512
